#F U:\Beamline I20\I20-2_EDE\Wigglers\xop\83mm-small-wiggler\EDE wiggler\1p2T-300mA-0p12x0p8mrad.dat
#C I20EDE 1.2T 300mA 0.12x0.8mrad
#S 1 File written by xplot on Tue Dec 07 18:15:12 2010
#N 2
#L    Energy [eV]  Flux [ph/s/0.1%bw]
50 5.51256E+012 
100 8.74371E+012 
150 1.14415E+013 
200 1.38356E+013 
250 1.60211E+013 
300 1.80495E+013 
350 1.99522E+013 
400 2.17505E+013 
450 2.34596E+013 
500 2.50908E+013 
550 2.66529E+013 
600 2.81528E+013 
650 2.95962E+013 
700 3.09877E+013 
750 3.23312E+013 
800 3.36301E+013 
850 3.48873E+013 
900 3.61053E+013 
950 3.72862E+013 
1000 3.84321E+013 
1050 3.95446E+013 
1100 4.06254E+013 
1150 4.16758E+013 
1200 4.26971E+013 
1250 4.36906E+013 
1300 4.46572E+013 
1350 4.55981E+013 
1400 4.6514E+013 
1450 4.74058E+013 
1500 4.82744E+013 
1550 4.91205E+013 
1600 4.99447E+013 
1650 5.07478E+013 
1700 5.15303E+013 
1750 5.22927E+013 
1800 5.30358E+013 
1850 5.376E+013 
1900 5.44657E+013 
1950 5.51534E+013 
2000 5.58237E+013 
2050 5.64768E+013 
2100 5.71133E+013 
2150 5.77335E+013 
2200 5.83378E+013 
2250 5.89266E+013 
2300 5.95001E+013 
2350 6.00588E+013 
2400 6.06029E+013 
2450 6.11327E+013 
2500 6.16486E+013 
2550 6.21509E+013 
2600 6.26398E+013 
2650 6.31156E+013 
2700 6.35785E+013 
2750 6.40288E+013 
2800 6.44668E+013 
2850 6.48927E+013 
2900 6.53067E+013 
2950 6.57091E+013 
3000 6.61E+013 
3050 6.64797E+013 
3100 6.68484E+013 
3150 6.72063E+013 
3200 6.75535E+013 
3250 6.78904E+013 
3300 6.8217E+013 
3350 6.85336E+013 
3400 6.88403E+013 
3450 6.91373E+013 
3500 6.94248E+013 
3550 6.97029E+013 
3600 6.99718E+013 
3650 7.02317E+013 
3700 7.04828E+013 
3750 7.07251E+013 
3800 7.09588E+013 
3850 7.11841E+013 
3900 7.14011E+013 
3950 7.161E+013 
4000 7.18109E+013 
4050 7.20039E+013 
4100 7.21892E+013 
4150 7.23669E+013 
4200 7.25371E+013 
4250 7.26999E+013 
4300 7.28555E+013 
4350 7.3004E+013 
4400 7.31455E+013 
4450 7.32802E+013 
4500 7.34081E+013 
4550 7.35293E+013 
4600 7.36441E+013 
4650 7.37523E+013 
4700 7.38543E+013 
4750 7.39501E+013 
4800 7.40397E+013 
4850 7.41234E+013 
4900 7.42011E+013 
4950 7.4273E+013 
5000 7.43392E+013 
5050 7.43998E+013 
5100 7.44549E+013 
5150 7.45045E+013 
5200 7.45488E+013 
5250 7.45879E+013 
5300 7.46218E+013 
5350 7.46505E+013 
5400 7.46743E+013 
5450 7.46932E+013 
5500 7.47073E+013 
5550 7.47166E+013 
5600 7.47212E+013 
5650 7.47213E+013 
5700 7.47169E+013 
5750 7.4708E+013 
5800 7.46947E+013 
5850 7.46772E+013 
5900 7.46554E+013 
5950 7.46295E+013 
6000 7.45996E+013 
6050 7.45656E+013 
6100 7.45277E+013 
6150 7.4486E+013 
6200 7.44404E+013 
6250 7.43911E+013 
6300 7.43382E+013 
6350 7.42816E+013 
6400 7.42215E+013 
6450 7.41579E+013 
6500 7.4091E+013 
6550 7.40206E+013 
6600 7.39469E+013 
6650 7.38701E+013 
6700 7.379E+013 
6750 7.37068E+013 
6800 7.36205E+013 
6850 7.35313E+013 
6900 7.3439E+013 
6950 7.33439E+013 
7000 7.32459E+013 
7050 7.31451E+013 
7100 7.30416E+013 
7150 7.29353E+013 
7200 7.28265E+013 
7250 7.2715E+013 
7300 7.2601E+013 
7350 7.24844E+013 
7400 7.23655E+013 
7450 7.22441E+013 
7500 7.21203E+013 
7550 7.19942E+013 
7600 7.18659E+013 
7650 7.17353E+013 
7700 7.16026E+013 
7750 7.14677E+013 
7800 7.13307E+013 
7850 7.11917E+013 
7900 7.10506E+013 
7950 7.09076E+013 
8000 7.07626E+013 
8050 7.06158E+013 
8100 7.04671E+013 
8150 7.03165E+013 
8200 7.01642E+013 
8250 7.00102E+013 
8300 6.98544E+013 
8350 6.9697E+013 
8400 6.95379E+013 
8450 6.93773E+013 
8500 6.92151E+013 
8550 6.90513E+013 
8600 6.88861E+013 
8650 6.87194E+013 
8700 6.85513E+013 
8750 6.83817E+013 
8800 6.82108E+013 
8850 6.80386E+013 
8900 6.78651E+013 
8950 6.76903E+013 
9000 6.75143E+013 
9050 6.7337E+013 
9100 6.71586E+013 
9150 6.69791E+013 
9200 6.67984E+013 
9250 6.66166E+013 
9300 6.64337E+013 
9350 6.62498E+013 
9400 6.60649E+013 
9450 6.58791E+013 
9500 6.56922E+013 
9550 6.55044E+013 
9600 6.53158E+013 
9650 6.51262E+013 
9700 6.49358E+013 
9750 6.47445E+013 
9800 6.45525E+013 
9850 6.43596E+013 
9900 6.4166E+013 
9950 6.39717E+013 
10000 6.37766E+013 
10050 6.35809E+013 
10100 6.33845E+013 
10150 6.31874E+013 
10200 6.29897E+013 
10250 6.27914E+013 
10300 6.25926E+013 
10350 6.23931E+013 
10400 6.21931E+013 
10450 6.19927E+013 
10500 6.17916E+013 
10550 6.15902E+013 
10600 6.13882E+013 
10650 6.11858E+013 
10700 6.0983E+013 
10750 6.07798E+013 
10800 6.05762E+013 
10850 6.03722E+013 
10900 6.01678E+013 
10950 5.99632E+013 
11000 5.97582E+013 
11050 5.95529E+013 
11100 5.93473E+013 
11150 5.91414E+013 
11200 5.89353E+013 
11250 5.8729E+013 
11300 5.85224E+013 
11350 5.83156E+013 
11400 5.81087E+013 
11450 5.79015E+013 
11500 5.76942E+013 
11550 5.74868E+013 
11600 5.72792E+013 
11650 5.70715E+013 
11700 5.68637E+013 
11750 5.66558E+013 
11800 5.64479E+013 
11850 5.62398E+013 
11900 5.60317E+013 
11950 5.58236E+013 
12000 5.56155E+013 
12050 5.54073E+013 
12100 5.51991E+013 
12150 5.4991E+013 
12200 5.47828E+013 
12250 5.45748E+013 
12300 5.43667E+013 
12350 5.41587E+013 
12400 5.39508E+013 
12450 5.3743E+013 
12500 5.35352E+013 
12550 5.33276E+013 
12600 5.312E+013 
12650 5.29126E+013 
12700 5.27053E+013 
12750 5.24981E+013 
12800 5.22912E+013 
12850 5.20843E+013 
12900 5.18777E+013 
12950 5.16712E+013 
13000 5.14649E+013 
13050 5.12588E+013 
13100 5.10529E+013 
13150 5.08472E+013 
13200 5.06418E+013 
13250 5.04365E+013 
13300 5.02316E+013 
13350 5.00268E+013 
13400 4.98224E+013 
13450 4.96181E+013 
13500 4.94142E+013 
13550 4.92105E+013 
13600 4.90072E+013 
13650 4.88041E+013 
13700 4.86013E+013 
13750 4.83989E+013 
13800 4.81967E+013 
13850 4.79949E+013 
13900 4.77934E+013 
13950 4.75922E+013 
14000 4.73914E+013 
14050 4.71909E+013 
14100 4.69908E+013 
14150 4.6791E+013 
14200 4.65916E+013 
14250 4.63926E+013 
14300 4.6194E+013 
14350 4.59957E+013 
14400 4.57978E+013 
14450 4.56004E+013 
14500 4.54033E+013 
14550 4.52066E+013 
14600 4.50104E+013 
14650 4.48145E+013 
14700 4.46191E+013 
14750 4.44241E+013 
14800 4.42295E+013 
14850 4.40354E+013 
14900 4.38417E+013 
14950 4.36484E+013 
15000 4.34556E+013 
15050 4.32632E+013 
15100 4.30713E+013 
15150 4.28799E+013 
15200 4.26889E+013 
15250 4.24984E+013 
15300 4.23083E+013 
15350 4.21188E+013 
15400 4.19297E+013 
15450 4.17411E+013 
15500 4.15529E+013 
15550 4.13653E+013 
15600 4.11781E+013 
15650 4.09915E+013 
15700 4.08054E+013 
15750 4.06197E+013 
15800 4.04346E+013 
15850 4.02499E+013 
15900 4.00658E+013 
15950 3.98822E+013 
16000 3.96991E+013 
16050 3.95165E+013 
16100 3.93344E+013 
16150 3.91529E+013 
16200 3.89719E+013 
16250 3.87914E+013 
16300 3.86114E+013 
16350 3.8432E+013 
16400 3.82531E+013 
16450 3.80748E+013 
16500 3.78969E+013 
16550 3.77197E+013 
16600 3.75429E+013 
16650 3.73667E+013 
16700 3.71911E+013 
16750 3.7016E+013 
16800 3.68414E+013 
16850 3.66674E+013 
16900 3.6494E+013 
16950 3.63211E+013 
17000 3.61488E+013 
17050 3.5977E+013 
17100 3.58058E+013 
17150 3.56351E+013 
17200 3.5465E+013 
17250 3.52955E+013 
17300 3.51265E+013 
17350 3.49581E+013 
17400 3.47903E+013 
17450 3.4623E+013 
17500 3.44562E+013 
17550 3.42901E+013 
17600 3.41245E+013 
17650 3.39595E+013 
17700 3.37951E+013 
17750 3.36312E+013 
17800 3.34679E+013 
17850 3.33052E+013 
17900 3.3143E+013 
17950 3.29814E+013 
18000 3.28204E+013 
18050 3.266E+013 
18100 3.25001E+013 
18150 3.23409E+013 
18200 3.21822E+013 
18250 3.2024E+013 
18300 3.18665E+013 
18350 3.17095E+013 
18400 3.15531E+013 
18450 3.13972E+013 
18500 3.1242E+013 
18550 3.10873E+013 
18600 3.09332E+013 
18650 3.07797E+013 
18700 3.06267E+013 
18750 3.04744E+013 
18800 3.03226E+013 
18850 3.01714E+013 
18900 3.00207E+013 
18950 2.98706E+013 
19000 2.97212E+013 
19050 2.95722E+013 
19100 2.94239E+013 
19150 2.92761E+013 
19200 2.91289E+013 
19250 2.89823E+013 
19300 2.88363E+013 
19350 2.86908E+013 
19400 2.85459E+013 
19450 2.84016E+013 
19500 2.82578E+013 
19550 2.81147E+013 
19600 2.79721E+013 
19650 2.783E+013 
19700 2.76885E+013 
19750 2.75476E+013 
19800 2.74073E+013 
19850 2.72675E+013 
19900 2.71284E+013 
19950 2.69897E+013 
20000 2.68517E+013 
20050 2.67142E+013 
20100 2.65772E+013 
20150 2.64409E+013 
20200 2.63051E+013 
20250 2.61698E+013 
20300 2.60351E+013 
20350 2.5901E+013 
20400 2.57675E+013 
20450 2.56344E+013 
20500 2.5502E+013 
20550 2.53701E+013 
20600 2.52388E+013 
20650 2.5108E+013 
20700 2.49778E+013 
20750 2.48481E+013 
20800 2.4719E+013 
20850 2.45904E+013 
20900 2.44624E+013 
20950 2.43349E+013 
21000 2.4208E+013 
21050 2.40816E+013 
21100 2.39558E+013 
21150 2.38305E+013 
21200 2.37057E+013 
21250 2.35815E+013 
21300 2.34579E+013 
21350 2.33348E+013 
21400 2.32122E+013 
21450 2.30901E+013 
21500 2.29686E+013 
21550 2.28476E+013 
21600 2.27272E+013 
21650 2.26073E+013 
21700 2.24879E+013 
21750 2.2369E+013 
21800 2.22507E+013 
21850 2.21329E+013 
21900 2.20157E+013 
21950 2.18989E+013 
22000 2.17827E+013 
22050 2.1667E+013 
22100 2.15518E+013 
22150 2.14372E+013 
22200 2.1323E+013 
22250 2.12094E+013 
22300 2.10963E+013 
22350 2.09837E+013 
22400 2.08716E+013 
22450 2.07601E+013 
22500 2.0649E+013 
22550 2.05384E+013 
22600 2.04284E+013 
22650 2.03189E+013 
22700 2.02098E+013 
22750 2.01013E+013 
22800 1.99933E+013 
22850 1.98857E+013 
22900 1.97787E+013 
22950 1.96721E+013 
23000 1.95661E+013 
23050 1.94605E+013 
23100 1.93555E+013 
23150 1.92509E+013 
23200 1.91468E+013 
23250 1.90432E+013 
23300 1.89401E+013 
23350 1.88375E+013 
23400 1.87354E+013 
23450 1.86337E+013 
23500 1.85326E+013 
23550 1.84319E+013 
23600 1.83317E+013 
23650 1.82319E+013 
23700 1.81326E+013 
23750 1.80338E+013 
23800 1.79355E+013 
23850 1.78376E+013 
23900 1.77403E+013 
23950 1.76433E+013 
24000 1.75469E+013 
24050 1.74509E+013 
24100 1.73554E+013 
24150 1.72603E+013 
24200 1.71657E+013 
24250 1.70715E+013 
24300 1.69778E+013 
24350 1.68846E+013 
24400 1.67918E+013 
24450 1.66994E+013 
24500 1.66075E+013 
24550 1.65161E+013 
24600 1.64251E+013 
24650 1.63345E+013 
24700 1.62444E+013 
24750 1.61547E+013 
24800 1.60655E+013 
24850 1.59767E+013 
24900 1.58883E+013 
24950 1.58004E+013 
25000 1.57129E+013 
25050 1.56258E+013 
25100 1.55392E+013 
25150 1.5453E+013 
25200 1.53672E+013 
25250 1.52818E+013 
25300 1.51969E+013 
25350 1.51124E+013 
25400 1.50283E+013 
25450 1.49446E+013 
25500 1.48614E+013 
25550 1.47786E+013 
25600 1.46961E+013 
25650 1.46141E+013 
25700 1.45325E+013 
25750 1.44513E+013 
25800 1.43705E+013 
25850 1.42902E+013 
25900 1.42102E+013 
25950 1.41306E+013 
26000 1.40515E+013 
26050 1.39727E+013 
26100 1.38943E+013 
26150 1.38163E+013 
26200 1.37388E+013 
26250 1.36616E+013 
26300 1.35848E+013 
26350 1.35084E+013 
26400 1.34324E+013 
26450 1.33567E+013 
26500 1.32815E+013 
26550 1.32066E+013 
26600 1.31322E+013 
26650 1.30581E+013 
26700 1.29844E+013 
26750 1.2911E+013 
26800 1.28381E+013 
26850 1.27655E+013 
26900 1.26933E+013 
26950 1.26214E+013 
27000 1.25499E+013 
27050 1.24788E+013 
27100 1.24081E+013 
27150 1.23377E+013 
27200 1.22677E+013 
27250 1.21981E+013 
27300 1.21288E+013 
27350 1.20599E+013 
27400 1.19913E+013 
27450 1.19231E+013 
27500 1.18552E+013 
27550 1.17877E+013 
27600 1.17206E+013 
27650 1.16538E+013 
27700 1.15873E+013 
27750 1.15212E+013 
27800 1.14554E+013 
27850 1.139E+013 
27900 1.1325E+013 
27950 1.12602E+013 
28000 1.11958E+013 
28050 1.11318E+013 
28100 1.10681E+013 
28150 1.10047E+013 
28200 1.09416E+013 
28250 1.08789E+013 
28300 1.08165E+013 
28350 1.07545E+013 
28400 1.06927E+013 
28450 1.06313E+013 
28500 1.05703E+013 
28550 1.05095E+013 
28600 1.04491E+013 
28650 1.0389E+013 
28700 1.03292E+013 
28750 1.02697E+013 
28800 1.02105E+013 
28850 1.01517E+013 
28900 1.00932E+013 
28950 1.00349E+013 
29000 9.97703E+012 
29050 9.91943E+012 
29100 9.86214E+012 
29150 9.80515E+012 
29200 9.74847E+012 
29250 9.6921E+012 
29300 9.63602E+012 
29350 9.58025E+012 
29400 9.52477E+012 
29450 9.4696E+012 
29500 9.41472E+012 
29550 9.36014E+012 
29600 9.30585E+012 
29650 9.25185E+012 
29700 9.19814E+012 
29750 9.14473E+012 
29800 9.0916E+012 
29850 9.03876E+012 
29900 8.9862E+012 
29950 8.93393E+012 
30000 8.88195E+012 
30050 8.83024E+012 
30100 8.77881E+012 
30150 8.72767E+012 
30200 8.6768E+012 
30250 8.62621E+012 
30300 8.57589E+012 
30350 8.52585E+012 
30400 8.47608E+012 
30450 8.42658E+012 
30500 8.37735E+012 
30550 8.32839E+012 
30600 8.2797E+012 
30650 8.23127E+012 
30700 8.18311E+012 
30750 8.13521E+012 
30800 8.08757E+012 
30850 8.0402E+012 
30900 7.99308E+012 
30950 7.94622E+012 
31000 7.89962E+012 
31050 7.85328E+012 
31100 7.80719E+012 
31150 7.76136E+012 
31200 7.71577E+012 
31250 7.67044E+012 
31300 7.62536E+012 
31350 7.58053E+012 
31400 7.53594E+012 
31450 7.4916E+012 
31500 7.4475E+012 
31550 7.40365E+012 
31600 7.36004E+012 
31650 7.31668E+012 
31700 7.27355E+012 
31750 7.23066E+012 
31800 7.18801E+012 
31850 7.1456E+012 
31900 7.10342E+012 
31950 7.06148E+012 
32000 7.01976E+012 
32050 6.97829E+012 
32100 6.93704E+012 
32150 6.89602E+012 
32200 6.85523E+012 
32250 6.81467E+012 
32300 6.77433E+012 
32350 6.73422E+012 
32400 6.69433E+012 
32450 6.65467E+012 
32500 6.61523E+012 
32550 6.57601E+012 
32600 6.537E+012 
32650 6.49822E+012 
32700 6.45965E+012 
32750 6.4213E+012 
32800 6.38317E+012 
32850 6.34525E+012 
32900 6.30754E+012 
32950 6.27004E+012 
33000 6.23276E+012 
33050 6.19568E+012 
33100 6.15882E+012 
33150 6.12216E+012 
33200 6.0857E+012 
33250 6.04946E+012 
33300 6.01342E+012 
33350 5.97758E+012 
33400 5.94194E+012 
33450 5.9065E+012 
33500 5.87127E+012 
33550 5.83623E+012 
33600 5.80139E+012 
33650 5.76675E+012 
33700 5.73231E+012 
33750 5.69806E+012 
33800 5.664E+012 
33850 5.63014E+012 
33900 5.59647E+012 
33950 5.56299E+012 
34000 5.5297E+012 
34050 5.4966E+012 
34100 5.46369E+012 
34150 5.43097E+012 
34200 5.39843E+012 
34250 5.36608E+012 
34300 5.33391E+012 
34350 5.30192E+012 
34400 5.27012E+012 
34450 5.2385E+012 
34500 5.20706E+012 
34550 5.1758E+012 
34600 5.14472E+012 
34650 5.11381E+012 
34700 5.08309E+012 
34750 5.05253E+012 
34800 5.02216E+012 
34850 4.99195E+012 
34900 4.96192E+012 
34950 4.93207E+012 
35000 4.90238E+012 
35050 4.87286E+012 
35100 4.84352E+012 
35150 4.81434E+012 
35200 4.78533E+012 
35250 4.75648E+012 
35300 4.7278E+012 
35350 4.69929E+012 
35400 4.67094E+012 
35450 4.64276E+012 
35500 4.61473E+012 
35550 4.58687E+012 
35600 4.55917E+012 
35650 4.53163E+012 
35700 4.50425E+012 
35750 4.47702E+012 
35800 4.44996E+012 
35850 4.42305E+012 
35900 4.39629E+012 
35950 4.36969E+012 
36000 4.34324E+012 
36050 4.31695E+012 
36100 4.29081E+012 
36150 4.26482E+012 
36200 4.23898E+012 
36250 4.21329E+012 
36300 4.18775E+012 
36350 4.16236E+012 
36400 4.13711E+012 
36450 4.11201E+012 
36500 4.08706E+012 
36550 4.06225E+012 
36600 4.03759E+012 
36650 4.01307E+012 
36700 3.9887E+012 
36750 3.96446E+012 
36800 3.94037E+012 
36850 3.91641E+012 
36900 3.8926E+012 
36950 3.86893E+012 
37000 3.84539E+012 
37050 3.82199E+012 
37100 3.79873E+012 
37150 3.7756E+012 
37200 3.75261E+012 
37250 3.72975E+012 
37300 3.70702E+012 
37350 3.68443E+012 
37400 3.66197E+012 
37450 3.63965E+012 
37500 3.61745E+012 
37550 3.59538E+012 
37600 3.57345E+012 
37650 3.55164E+012 
37700 3.52996E+012 
37750 3.5084E+012 
37800 3.48698E+012 
37850 3.46568E+012 
37900 3.4445E+012 
37950 3.42345E+012 
38000 3.40252E+012 
38050 3.38172E+012 
38100 3.36103E+012 
38150 3.34047E+012 
38200 3.32003E+012 
38250 3.29971E+012 
38300 3.27951E+012 
38350 3.25943E+012 
38400 3.23947E+012 
38450 3.21962E+012 
38500 3.1999E+012 
38550 3.18028E+012 
38600 3.16079E+012 
38650 3.14141E+012 
38700 3.12214E+012 
38750 3.10299E+012 
38800 3.08395E+012 
38850 3.06503E+012 
38900 3.04621E+012 
38950 3.02751E+012 
39000 3.00892E+012 
39050 2.99043E+012 
39100 2.97206E+012 
39150 2.9538E+012 
39200 2.93564E+012 
39250 2.91759E+012 
39300 2.89965E+012 
39350 2.88182E+012 
39400 2.86409E+012 
39450 2.84647E+012 
39500 2.82895E+012 
39550 2.81153E+012 
39600 2.79422E+012 
39650 2.77701E+012 
39700 2.75991E+012 
39750 2.7429E+012 
39800 2.726E+012 
39850 2.7092E+012 
39900 2.69249E+012 
39950 2.67589E+012 
40000 2.65939E+012 
40050 2.64298E+012 
40100 2.62667E+012 
40150 2.61046E+012 
40200 2.59435E+012 
40250 2.57833E+012 
40300 2.56241E+012 
40350 2.54658E+012 
40400 2.53085E+012 
40450 2.51521E+012 
40500 2.49967E+012 
40550 2.48421E+012 
40600 2.46885E+012 
40650 2.45359E+012 
40700 2.43841E+012 
40750 2.42332E+012 
40800 2.40833E+012 
40850 2.39342E+012 
40900 2.37861E+012 
40950 2.36388E+012 
41000 2.34924E+012 
41050 2.33469E+012 
41100 2.32023E+012 
41150 2.30585E+012 
41200 2.29156E+012 
41250 2.27735E+012 
41300 2.26323E+012 
41350 2.2492E+012 
41400 2.23525E+012 
41450 2.22138E+012 
41500 2.2076E+012 
41550 2.1939E+012 
41600 2.18028E+012 
41650 2.16674E+012 
41700 2.15329E+012 
41750 2.13991E+012 
41800 2.12662E+012 
41850 2.11341E+012 
41900 2.10027E+012 
41950 2.08722E+012 
42000 2.07424E+012 
42050 2.06134E+012 
42100 2.04852E+012 
42150 2.03578E+012 
42200 2.02312E+012 
42250 2.01053E+012 
42300 1.99802E+012 
42350 1.98558E+012 
42400 1.97322E+012 
42450 1.96093E+012 
42500 1.94872E+012 
42550 1.93658E+012 
42600 1.92451E+012 
42650 1.91252E+012 
42700 1.9006E+012 
42750 1.88875E+012 
42800 1.87697E+012 
42850 1.86527E+012 
42900 1.85363E+012 
42950 1.84207E+012 
43000 1.83058E+012 
43050 1.81915E+012 
43100 1.8078E+012 
43150 1.79651E+012 
43200 1.7853E+012 
43250 1.77415E+012 
43300 1.76306E+012 
43350 1.75205E+012 
43400 1.7411E+012 
43450 1.73022E+012 
43500 1.71941E+012 
43550 1.70866E+012 
43600 1.69798E+012 
43650 1.68736E+012 
43700 1.6768E+012 
43750 1.66631E+012 
43800 1.65589E+012 
43850 1.64552E+012 
43900 1.63523E+012 
43950 1.62499E+012 
44000 1.61482E+012 
44050 1.6047E+012 
44100 1.59465E+012 
44150 1.58466E+012 
44200 1.57474E+012 
44250 1.56487E+012 
44300 1.55506E+012 
44350 1.54531E+012 
44400 1.53562E+012 
44450 1.52599E+012 
44500 1.51642E+012 
44550 1.50691E+012 
44600 1.49746E+012 
44650 1.48806E+012 
44700 1.47872E+012 
44750 1.46944E+012 
44800 1.46022E+012 
44850 1.45105E+012 
44900 1.44194E+012 
44950 1.43288E+012 
45000 1.42388E+012 
45050 1.41493E+012 
45100 1.40604E+012 
45150 1.39721E+012 
45200 1.38842E+012 
45250 1.3797E+012 
45300 1.37102E+012 
45350 1.3624E+012 
45400 1.35383E+012 
45450 1.34531E+012 
45500 1.33685E+012 
45550 1.32844E+012 
45600 1.32008E+012 
45650 1.31177E+012 
45700 1.30351E+012 
45750 1.2953E+012 
45800 1.28714E+012 
45850 1.27904E+012 
45900 1.27098E+012 
45950 1.26297E+012 
46000 1.25501E+012 
46050 1.2471E+012 
46100 1.23924E+012 
46150 1.23143E+012 
46200 1.22367E+012 
46250 1.21595E+012 
46300 1.20828E+012 
46350 1.20066E+012 
46400 1.19308E+012 
46450 1.18556E+012 
46500 1.17807E+012 
46550 1.17064E+012 
46600 1.16325E+012 
46650 1.1559E+012 
46700 1.14861E+012 
46750 1.14135E+012 
46800 1.13414E+012 
46850 1.12698E+012 
46900 1.11986E+012 
46950 1.11278E+012 
47000 1.10575E+012 
47050 1.09876E+012 
47100 1.09181E+012 
47150 1.08491E+012 
47200 1.07805E+012 
47250 1.07123E+012 
47300 1.06445E+012 
47350 1.05772E+012 
47400 1.05103E+012 
47450 1.04438E+012 
47500 1.03776E+012 
47550 1.0312E+012 
47600 1.02467E+012 
47650 1.01818E+012 
47700 1.01173E+012 
47750 1.00532E+012 
47800 9.98956E+011 
