#F U:\Beamline I20\I20-2_EDE\Wigglers\xop\83mm-small-wiggler\EDE wiggler\1p3T-300mA-0p12x0p9mrad.dat
#C I20EDE 1.3T 300mA 0.12x0.90mrad
#S 1 File written by xplot on Tue Dec 07 18:00:10 2010
#N 2
#L    Energy [eV]  Flux [ph/s/0.1%bw]
50 5.88304E+012 
100 9.33268E+012 
150 1.22146E+013 
200 1.47737E+013 
250 1.71116E+013 
300 1.92832E+013 
350 2.1322E+013 
400 2.32507E+013 
450 2.50854E+013 
500 2.68383E+013 
550 2.85186E+013 
600 3.01338E+013 
650 3.16898E+013 
700 3.31915E+013 
750 3.46431E+013 
800 3.60483E+013 
850 3.74099E+013 
900 3.87307E+013 
950 4.00129E+013 
1000 4.12587E+013 
1050 4.24699E+013 
1100 4.3648E+013 
1150 4.47947E+013 
1200 4.59113E+013 
1250 4.69989E+013 
1300 4.80587E+013 
1350 4.90917E+013 
1400 5.0099E+013 
1450 5.10813E+013 
1500 5.20395E+013 
1550 5.29744E+013 
1600 5.38867E+013 
1650 5.47771E+013 
1700 5.56462E+013 
1750 5.64945E+013 
1800 5.73228E+013 
1850 5.81314E+013 
1900 5.89209E+013 
1950 5.96919E+013 
2000 6.04446E+013 
2050 6.11797E+013 
2100 6.18975E+013 
2150 6.25983E+013 
2200 6.32827E+013 
2250 6.39509E+013 
2300 6.46033E+013 
2350 6.52402E+013 
2400 6.5862E+013 
2450 6.6469E+013 
2500 6.70615E+013 
2550 6.76397E+013 
2600 6.82041E+013 
2650 6.87547E+013 
2700 6.9292E+013 
2750 6.98161E+013 
2800 7.03273E+013 
2850 7.08259E+013 
2900 7.1312E+013 
2950 7.17859E+013 
3000 7.22479E+013 
3050 7.26981E+013 
3100 7.31368E+013 
3150 7.35641E+013 
3200 7.39803E+013 
3250 7.43856E+013 
3300 7.478E+013 
3350 7.51639E+013 
3400 7.55374E+013 
3450 7.59007E+013 
3500 7.62539E+013 
3550 7.65972E+013 
3600 7.69308E+013 
3650 7.72549E+013 
3700 7.75696E+013 
3750 7.7875E+013 
3800 7.81713E+013 
3850 7.84586E+013 
3900 7.87372E+013 
3950 7.90071E+013 
4000 7.92685E+013 
4050 7.95214E+013 
4100 7.97661E+013 
4150 8.00027E+013 
4200 8.02313E+013 
4250 8.04521E+013 
4300 8.0665E+013 
4350 8.08704E+013 
4400 8.10682E+013 
4450 8.12587E+013 
4500 8.14419E+013 
4550 8.16179E+013 
4600 8.17869E+013 
4650 8.19489E+013 
4700 8.21041E+013 
4750 8.22526E+013 
4800 8.23944E+013 
4850 8.25297E+013 
4900 8.26586E+013 
4950 8.27812E+013 
5000 8.28976E+013 
5050 8.30078E+013 
5100 8.3112E+013 
5150 8.32102E+013 
5200 8.33026E+013 
5250 8.33892E+013 
5300 8.34702E+013 
5350 8.35456E+013 
5400 8.36155E+013 
5450 8.36799E+013 
5500 8.37391E+013 
5550 8.37929E+013 
5600 8.38417E+013 
5650 8.38853E+013 
5700 8.39239E+013 
5750 8.39576E+013 
5800 8.39864E+013 
5850 8.40104E+013 
5900 8.40298E+013 
5950 8.40444E+013 
6000 8.40546E+013 
6050 8.40602E+013 
6100 8.40615E+013 
6150 8.40583E+013 
6200 8.40509E+013 
6250 8.40392E+013 
6300 8.40235E+013 
6350 8.40036E+013 
6400 8.39797E+013 
6450 8.39518E+013 
6500 8.39201E+013 
6550 8.38845E+013 
6600 8.38451E+013 
6650 8.38021E+013 
6700 8.37553E+013 
6750 8.3705E+013 
6800 8.36511E+013 
6850 8.35938E+013 
6900 8.3533E+013 
6950 8.34689E+013 
7000 8.34014E+013 
7050 8.33307E+013 
7100 8.32568E+013 
7150 8.31797E+013 
7200 8.30995E+013 
7250 8.30163E+013 
7300 8.293E+013 
7350 8.28408E+013 
7400 8.27487E+013 
7450 8.26538E+013 
7500 8.2556E+013 
7550 8.24555E+013 
7600 8.23523E+013 
7650 8.22464E+013 
7700 8.21379E+013 
7750 8.20268E+013 
7800 8.19131E+013 
7850 8.1797E+013 
7900 8.16785E+013 
7950 8.15575E+013 
8000 8.14342E+013 
8050 8.13085E+013 
8100 8.11806E+013 
8150 8.10505E+013 
8200 8.09181E+013 
8250 8.07836E+013 
8300 8.0647E+013 
8350 8.05082E+013 
8400 8.03675E+013 
8450 8.02247E+013 
8500 8.008E+013 
8550 7.99333E+013 
8600 7.97848E+013 
8650 7.96343E+013 
8700 7.94821E+013 
8750 7.93281E+013 
8800 7.91723E+013 
8850 7.90147E+013 
8900 7.88555E+013 
8950 7.86947E+013 
9000 7.85322E+013 
9050 7.83681E+013 
9100 7.82025E+013 
9150 7.80353E+013 
9200 7.78666E+013 
9250 7.76965E+013 
9300 7.75249E+013 
9350 7.7352E+013 
9400 7.71776E+013 
9450 7.70019E+013 
9500 7.68249E+013 
9550 7.66466E+013 
9600 7.6467E+013 
9650 7.62862E+013 
9700 7.61041E+013 
9750 7.59209E+013 
9800 7.57365E+013 
9850 7.5551E+013 
9900 7.53644E+013 
9950 7.51768E+013 
10000 7.4988E+013 
10050 7.47982E+013 
10100 7.46075E+013 
10150 7.44157E+013 
10200 7.4223E+013 
10250 7.40294E+013 
10300 7.38348E+013 
10350 7.36394E+013 
10400 7.34431E+013 
10450 7.32459E+013 
10500 7.30479E+013 
10550 7.28492E+013 
10600 7.26496E+013 
10650 7.24493E+013 
10700 7.22483E+013 
10750 7.20465E+013 
10800 7.18441E+013 
10850 7.1641E+013 
10900 7.14372E+013 
10950 7.12328E+013 
11000 7.10278E+013 
11050 7.08222E+013 
11100 7.0616E+013 
11150 7.04093E+013 
11200 7.0202E+013 
11250 6.99942E+013 
11300 6.97859E+013 
11350 6.95771E+013 
11400 6.93678E+013 
11450 6.91581E+013 
11500 6.89479E+013 
11550 6.87374E+013 
11600 6.85264E+013 
11650 6.8315E+013 
11700 6.81033E+013 
11750 6.78912E+013 
11800 6.76788E+013 
11850 6.74661E+013 
11900 6.72531E+013 
11950 6.70397E+013 
12000 6.68261E+013 
12050 6.66122E+013 
12100 6.63981E+013 
12150 6.61838E+013 
12200 6.59692E+013 
12250 6.57544E+013 
12300 6.55394E+013 
12350 6.53243E+013 
12400 6.51089E+013 
12450 6.48935E+013 
12500 6.46778E+013 
12550 6.44621E+013 
12600 6.42462E+013 
12650 6.40303E+013 
12700 6.38142E+013 
12750 6.35981E+013 
12800 6.33819E+013 
12850 6.31657E+013 
12900 6.29494E+013 
12950 6.2733E+013 
13000 6.25167E+013 
13050 6.23003E+013 
13100 6.2084E+013 
13150 6.18676E+013 
13200 6.16513E+013 
13250 6.1435E+013 
13300 6.12187E+013 
13350 6.10025E+013 
13400 6.07864E+013 
13450 6.05703E+013 
13500 6.03544E+013 
13550 6.01385E+013 
13600 5.99227E+013 
13650 5.9707E+013 
13700 5.94914E+013 
13750 5.9276E+013 
13800 5.90607E+013 
13850 5.88456E+013 
13900 5.86306E+013 
13950 5.84157E+013 
14000 5.82011E+013 
14050 5.79866E+013 
14100 5.77723E+013 
14150 5.75582E+013 
14200 5.73443E+013 
14250 5.71306E+013 
14300 5.69171E+013 
14350 5.67038E+013 
14400 5.64908E+013 
14450 5.62781E+013 
14500 5.60655E+013 
14550 5.58533E+013 
14600 5.56412E+013 
14650 5.54295E+013 
14700 5.5218E+013 
14750 5.50068E+013 
14800 5.47959E+013 
14850 5.45853E+013 
14900 5.43749E+013 
14950 5.41649E+013 
15000 5.39552E+013 
15050 5.37458E+013 
15100 5.35368E+013 
15150 5.33281E+013 
15200 5.31196E+013 
15250 5.29116E+013 
15300 5.27039E+013 
15350 5.24965E+013 
15400 5.22895E+013 
15450 5.20828E+013 
15500 5.18765E+013 
15550 5.16706E+013 
15600 5.14651E+013 
15650 5.12599E+013 
15700 5.10552E+013 
15750 5.08508E+013 
15800 5.06468E+013 
15850 5.04432E+013 
15900 5.024E+013 
15950 5.00372E+013 
16000 4.98348E+013 
16050 4.96329E+013 
16100 4.94313E+013 
16150 4.92302E+013 
16200 4.90295E+013 
16250 4.88293E+013 
16300 4.86294E+013 
16350 4.84301E+013 
16400 4.82311E+013 
16450 4.80326E+013 
16500 4.78346E+013 
16550 4.7637E+013 
16600 4.74398E+013 
16650 4.72431E+013 
16700 4.70469E+013 
16750 4.68511E+013 
16800 4.66558E+013 
16850 4.6461E+013 
16900 4.62667E+013 
16950 4.60728E+013 
17000 4.58794E+013 
17050 4.56865E+013 
17100 4.54941E+013 
17150 4.53021E+013 
17200 4.51107E+013 
17250 4.49197E+013 
17300 4.47293E+013 
17350 4.45393E+013 
17400 4.43498E+013 
17450 4.41608E+013 
17500 4.39724E+013 
17550 4.37844E+013 
17600 4.3597E+013 
17650 4.341E+013 
17700 4.32236E+013 
17750 4.30377E+013 
17800 4.28523E+013 
17850 4.26674E+013 
17900 4.2483E+013 
17950 4.22992E+013 
18000 4.21158E+013 
18050 4.1933E+013 
18100 4.17508E+013 
18150 4.1569E+013 
18200 4.13878E+013 
18250 4.12071E+013 
18300 4.10269E+013 
18350 4.08473E+013 
18400 4.06682E+013 
18450 4.04896E+013 
18500 4.03116E+013 
18550 4.01341E+013 
18600 3.99572E+013 
18650 3.97807E+013 
18700 3.96049E+013 
18750 3.94295E+013 
18800 3.92547E+013 
18850 3.90805E+013 
18900 3.89068E+013 
18950 3.87336E+013 
19000 3.8561E+013 
19050 3.83889E+013 
19100 3.82174E+013 
19150 3.80464E+013 
19200 3.7876E+013 
19250 3.77061E+013 
19300 3.75368E+013 
19350 3.7368E+013 
19400 3.71998E+013 
19450 3.70321E+013 
19500 3.6865E+013 
19550 3.66984E+013 
19600 3.65324E+013 
19650 3.63669E+013 
19700 3.6202E+013 
19750 3.60376E+013 
19800 3.58738E+013 
19850 3.57105E+013 
19900 3.55478E+013 
19950 3.53856E+013 
20000 3.5224E+013 
20050 3.5063E+013 
20100 3.49025E+013 
20150 3.47425E+013 
20200 3.45832E+013 
20250 3.44243E+013 
20300 3.4266E+013 
20350 3.41083E+013 
20400 3.39511E+013 
20450 3.37945E+013 
20500 3.36384E+013 
20550 3.34829E+013 
20600 3.33279E+013 
20650 3.31735E+013 
20700 3.30197E+013 
20750 3.28664E+013 
20800 3.27136E+013 
20850 3.25614E+013 
20900 3.24097E+013 
20950 3.22586E+013 
21000 3.21081E+013 
21050 3.19581E+013 
21100 3.18086E+013 
21150 3.16597E+013 
21200 3.15114E+013 
21250 3.13635E+013 
21300 3.12163E+013 
21350 3.10696E+013 
21400 3.09234E+013 
21450 3.07778E+013 
21500 3.06327E+013 
21550 3.04882E+013 
21600 3.03442E+013 
21650 3.02007E+013 
21700 3.00578E+013 
21750 2.99155E+013 
21800 2.97737E+013 
21850 2.96324E+013 
21900 2.94916E+013 
21950 2.93514E+013 
22000 2.92118E+013 
22050 2.90727E+013 
22100 2.89341E+013 
22150 2.8796E+013 
22200 2.86585E+013 
22250 2.85215E+013 
22300 2.83851E+013 
22350 2.82491E+013 
22400 2.81138E+013 
22450 2.79789E+013 
22500 2.78446E+013 
22550 2.77108E+013 
22600 2.75775E+013 
22650 2.74448E+013 
22700 2.73126E+013 
22750 2.71809E+013 
22800 2.70497E+013 
22850 2.69191E+013 
22900 2.6789E+013 
22950 2.66594E+013 
23000 2.65303E+013 
23050 2.64018E+013 
23100 2.62737E+013 
23150 2.61462E+013 
23200 2.60192E+013 
23250 2.58927E+013 
23300 2.57667E+013 
23350 2.56413E+013 
23400 2.55163E+013 
23450 2.53919E+013 
23500 2.5268E+013 
23550 2.51445E+013 
23600 2.50216E+013 
23650 2.48992E+013 
23700 2.47773E+013 
23750 2.46559E+013 
23800 2.4535E+013 
23850 2.44146E+013 
23900 2.42947E+013 
23950 2.41753E+013 
24000 2.40564E+013 
24050 2.39381E+013 
24100 2.38202E+013 
24150 2.37027E+013 
24200 2.35858E+013 
24250 2.34694E+013 
24300 2.33535E+013 
24350 2.3238E+013 
24400 2.31231E+013 
24450 2.30086E+013 
24500 2.28946E+013 
24550 2.27811E+013 
24600 2.26681E+013 
24650 2.25556E+013 
24700 2.24435E+013 
24750 2.23319E+013 
24800 2.22208E+013 
24850 2.21102E+013 
24900 2.20001E+013 
24950 2.18904E+013 
25000 2.17812E+013 
25050 2.16725E+013 
25100 2.15642E+013 
25150 2.14564E+013 
25200 2.13491E+013 
25250 2.12422E+013 
25300 2.11358E+013 
25350 2.10299E+013 
25400 2.09244E+013 
25450 2.08194E+013 
25500 2.07149E+013 
25550 2.06108E+013 
25600 2.05072E+013 
25650 2.0404E+013 
25700 2.03013E+013 
25750 2.0199E+013 
25800 2.00972E+013 
25850 1.99958E+013 
25900 1.98949E+013 
25950 1.97944E+013 
26000 1.96944E+013 
26050 1.95948E+013 
26100 1.94956E+013 
26150 1.93969E+013 
26200 1.92987E+013 
26250 1.92009E+013 
26300 1.91035E+013 
26350 1.90065E+013 
26400 1.891E+013 
26450 1.88139E+013 
26500 1.87183E+013 
26550 1.8623E+013 
26600 1.85282E+013 
26650 1.84339E+013 
26700 1.83399E+013 
26750 1.82464E+013 
26800 1.81533E+013 
26850 1.80606E+013 
26900 1.79684E+013 
26950 1.78766E+013 
27000 1.77851E+013 
27050 1.76941E+013 
27100 1.76036E+013 
27150 1.75134E+013 
27200 1.74236E+013 
27250 1.73343E+013 
27300 1.72453E+013 
27350 1.71568E+013 
27400 1.70687E+013 
27450 1.6981E+013 
27500 1.68936E+013 
27550 1.68067E+013 
27600 1.67202E+013 
27650 1.66341E+013 
27700 1.65484E+013 
27750 1.64631E+013 
27800 1.63781E+013 
27850 1.62936E+013 
27900 1.62094E+013 
27950 1.61257E+013 
28000 1.60423E+013 
28050 1.59593E+013 
28100 1.58768E+013 
28150 1.57946E+013 
28200 1.57127E+013 
28250 1.56313E+013 
28300 1.55502E+013 
28350 1.54696E+013 
28400 1.53893E+013 
28450 1.53093E+013 
28500 1.52298E+013 
28550 1.51506E+013 
28600 1.50718E+013 
28650 1.49934E+013 
28700 1.49153E+013 
28750 1.48376E+013 
28800 1.47603E+013 
28850 1.46833E+013 
28900 1.46067E+013 
28950 1.45305E+013 
29000 1.44546E+013 
29050 1.43791E+013 
29100 1.4304E+013 
29150 1.42292E+013 
29200 1.41547E+013 
29250 1.40806E+013 
29300 1.40069E+013 
29350 1.39335E+013 
29400 1.38605E+013 
29450 1.37878E+013 
29500 1.37155E+013 
29550 1.36435E+013 
29600 1.35718E+013 
29650 1.35005E+013 
29700 1.34296E+013 
29750 1.3359E+013 
29800 1.32887E+013 
29850 1.32187E+013 
29900 1.31491E+013 
29950 1.30799E+013 
30000 1.30109E+013 
30050 1.29423E+013 
30100 1.28741E+013 
30150 1.28061E+013 
30200 1.27385E+013 
30250 1.26712E+013 
30300 1.26043E+013 
30350 1.25376E+013 
30400 1.24713E+013 
30450 1.24053E+013 
30500 1.23397E+013 
30550 1.22743E+013 
30600 1.22093E+013 
30650 1.21446E+013 
30700 1.20802E+013 
30750 1.20161E+013 
30800 1.19523E+013 
30850 1.18889E+013 
30900 1.18257E+013 
30950 1.17629E+013 
31000 1.17004E+013 
31050 1.16382E+013 
31100 1.15763E+013 
31150 1.15147E+013 
31200 1.14533E+013 
31250 1.13923E+013 
31300 1.13316E+013 
31350 1.12712E+013 
31400 1.12111E+013 
31450 1.11513E+013 
31500 1.10918E+013 
31550 1.10326E+013 
31600 1.09736E+013 
31650 1.0915E+013 
31700 1.08566E+013 
31750 1.07986E+013 
31800 1.07408E+013 
31850 1.06833E+013 
31900 1.06261E+013 
31950 1.05692E+013 
32000 1.05126E+013 
32050 1.04562E+013 
32100 1.04002E+013 
32150 1.03444E+013 
32200 1.02889E+013 
32250 1.02336E+013 
32300 1.01787E+013 
32350 1.0124E+013 
32400 1.00696E+013 
32450 1.00154E+013 
32500 9.96157E+012 
32550 9.90798E+012 
32600 9.85465E+012 
32650 9.80159E+012 
32700 9.74879E+012 
32750 9.69626E+012 
32800 9.644E+012 
32850 9.592E+012 
32900 9.54025E+012 
32950 9.48877E+012 
33000 9.43755E+012 
33050 9.38659E+012 
33100 9.33589E+012 
33150 9.28544E+012 
33200 9.23524E+012 
33250 9.1853E+012 
33300 9.13561E+012 
33350 9.08618E+012 
33400 9.03699E+012 
33450 8.98805E+012 
33500 8.93936E+012 
33550 8.89092E+012 
33600 8.84273E+012 
33650 8.79477E+012 
33700 8.74707E+012 
33750 8.6996E+012 
33800 8.65238E+012 
33850 8.60539E+012 
33900 8.55865E+012 
33950 8.51215E+012 
34000 8.46588E+012 
34050 8.41985E+012 
34100 8.37405E+012 
34150 8.32849E+012 
34200 8.28315E+012 
34250 8.23806E+012 
34300 8.19319E+012 
34350 8.14855E+012 
34400 8.10414E+012 
34450 8.05996E+012 
34500 8.01601E+012 
34550 7.97228E+012 
34600 7.92877E+012 
34650 7.88549E+012 
34700 7.84243E+012 
34750 7.7996E+012 
34800 7.75698E+012 
34850 7.71458E+012 
34900 7.6724E+012 
34950 7.63044E+012 
35000 7.58869E+012 
35050 7.54717E+012 
35100 7.50585E+012 
35150 7.46475E+012 
35200 7.42386E+012 
35250 7.38318E+012 
35300 7.34271E+012 
35350 7.30245E+012 
35400 7.2624E+012 
35450 7.22256E+012 
35500 7.18292E+012 
35550 7.14349E+012 
35600 7.10427E+012 
35650 7.06525E+012 
35700 7.02643E+012 
35750 6.98781E+012 
35800 6.94939E+012 
35850 6.91118E+012 
35900 6.87316E+012 
35950 6.83534E+012 
36000 6.79772E+012 
36050 6.76029E+012 
36100 6.72306E+012 
36150 6.68602E+012 
36200 6.64918E+012 
36250 6.61252E+012 
36300 6.57606E+012 
36350 6.53979E+012 
36400 6.50371E+012 
36450 6.46782E+012 
36500 6.43212E+012 
36550 6.3966E+012 
36600 6.36127E+012 
36650 6.32613E+012 
36700 6.29117E+012 
36750 6.25639E+012 
36800 6.22179E+012 
36850 6.18738E+012 
36900 6.15315E+012 
36950 6.1191E+012 
37000 6.08522E+012 
37050 6.05153E+012 
37100 6.01801E+012 
37150 5.98467E+012 
37200 5.9515E+012 
37250 5.91851E+012 
37300 5.8857E+012 
37350 5.85305E+012 
37400 5.82058E+012 
37450 5.78828E+012 
37500 5.75615E+012 
37550 5.72419E+012 
37600 5.6924E+012 
37650 5.66078E+012 
37700 5.62932E+012 
37750 5.59804E+012 
37800 5.56691E+012 
37850 5.53596E+012 
37900 5.50516E+012 
37950 5.47453E+012 
38000 5.44406E+012 
38050 5.41376E+012 
38100 5.38361E+012 
38150 5.35363E+012 
38200 5.3238E+012 
38250 5.29413E+012 
38300 5.26462E+012 
38350 5.23527E+012 
38400 5.20607E+012 
38450 5.17703E+012 
38500 5.14815E+012 
38550 5.11941E+012 
38600 5.09083E+012 
38650 5.06241E+012 
38700 5.03413E+012 
38750 5.00601E+012 
38800 4.97803E+012 
38850 4.95021E+012 
38900 4.92253E+012 
38950 4.89501E+012 
39000 4.86763E+012 
39050 4.84039E+012 
39100 4.8133E+012 
39150 4.78636E+012 
39200 4.75956E+012 
39250 4.73291E+012 
39300 4.70639E+012 
39350 4.68002E+012 
39400 4.65379E+012 
39450 4.62771E+012 
39500 4.60176E+012 
39550 4.57595E+012 
39600 4.55028E+012 
39650 4.52475E+012 
39700 4.49935E+012 
39750 4.47409E+012 
39800 4.44897E+012 
39850 4.42398E+012 
39900 4.39913E+012 
39950 4.37441E+012 
40000 4.34983E+012 
40050 4.32537E+012 
40100 4.30105E+012 
40150 4.27686E+012 
40200 4.2528E+012 
40250 4.22887E+012 
40300 4.20507E+012 
40350 4.1814E+012 
40400 4.15786E+012 
40450 4.13444E+012 
40500 4.11115E+012 
40550 4.08799E+012 
40600 4.06495E+012 
40650 4.04203E+012 
40700 4.01924E+012 
40750 3.99658E+012 
40800 3.97403E+012 
40850 3.95161E+012 
40900 3.92931E+012 
40950 3.90713E+012 
41000 3.88508E+012 
41050 3.86314E+012 
41100 3.84132E+012 
41150 3.81962E+012 
41200 3.79803E+012 
41250 3.77657E+012 
41300 3.75522E+012 
41350 3.73399E+012 
41400 3.71287E+012 
41450 3.69187E+012 
41500 3.67098E+012 
41550 3.6502E+012 
41600 3.62954E+012 
41650 3.60899E+012 
41700 3.58856E+012 
41750 3.56823E+012 
41800 3.54802E+012 
41850 3.52791E+012 
41900 3.50792E+012 
41950 3.48804E+012 
42000 3.46826E+012 
42050 3.44859E+012 
42100 3.42903E+012 
42150 3.40957E+012 
42200 3.39023E+012 
42250 3.37099E+012 
42300 3.35185E+012 
42350 3.33282E+012 
42400 3.31389E+012 
42450 3.29507E+012 
42500 3.27635E+012 
42550 3.25773E+012 
42600 3.23921E+012 
42650 3.2208E+012 
42700 3.20249E+012 
42750 3.18427E+012 
42800 3.16616E+012 
42850 3.14815E+012 
42900 3.13023E+012 
42950 3.11242E+012 
43000 3.0947E+012 
43050 3.07708E+012 
43100 3.05955E+012 
43150 3.04213E+012 
43200 3.02479E+012 
43250 3.00756E+012 
43300 2.99042E+012 
43350 2.97337E+012 
43400 2.95642E+012 
43450 2.93956E+012 
43500 2.92279E+012 
43550 2.90612E+012 
43600 2.88954E+012 
43650 2.87305E+012 
43700 2.85665E+012 
43750 2.84034E+012 
43800 2.82412E+012 
43850 2.80799E+012 
43900 2.79195E+012 
43950 2.776E+012 
44000 2.76013E+012 
44050 2.74436E+012 
44100 2.72867E+012 
44150 2.71307E+012 
44200 2.69755E+012 
44250 2.68212E+012 
44300 2.66678E+012 
44350 2.65152E+012 
44400 2.63634E+012 
44450 2.62125E+012 
44500 2.60625E+012 
44550 2.59132E+012 
44600 2.57648E+012 
44650 2.56172E+012 
44700 2.54705E+012 
44750 2.53245E+012 
44800 2.51794E+012 
44850 2.50351E+012 
44900 2.48915E+012 
44950 2.47488E+012 
45000 2.46068E+012 
45050 2.44657E+012 
45100 2.43253E+012 
45150 2.41857E+012 
45200 2.40469E+012 
45250 2.39089E+012 
45300 2.37716E+012 
45350 2.36351E+012 
45400 2.34994E+012 
45450 2.33644E+012 
45500 2.32301E+012 
45550 2.30966E+012 
45600 2.29639E+012 
45650 2.28319E+012 
45700 2.27006E+012 
45750 2.25701E+012 
45800 2.24403E+012 
45850 2.23112E+012 
45900 2.21828E+012 
45950 2.20552E+012 
46000 2.19283E+012 
46050 2.1802E+012 
46100 2.16765E+012 
46150 2.15517E+012 
46200 2.14276E+012 
46250 2.13042E+012 
46300 2.11814E+012 
46350 2.10594E+012 
46400 2.0938E+012 
46450 2.08173E+012 
46500 2.06973E+012 
46550 2.0578E+012 
46600 2.04593E+012 
46650 2.03413E+012 
46700 2.0224E+012 
46750 2.01073E+012 
46800 1.99913E+012 
46850 1.98759E+012 
46900 1.97612E+012 
46950 1.96471E+012 
47000 1.95336E+012 
47050 1.94208E+012 
47100 1.93087E+012 
47150 1.91971E+012 
47200 1.90862E+012 
47250 1.89759E+012 
47300 1.88662E+012 
47350 1.87572E+012 
47400 1.86487E+012 
47450 1.85409E+012 
47500 1.84337E+012 
47550 1.83271E+012 
47600 1.8221E+012 
47650 1.81156E+012 
47700 1.80108E+012 
47750 1.79065E+012 
47800 1.78029E+012 
