#F U:\Beamline I20\I20-2_EDE\Wigglers\xop\83mm-small-wiggler\EDE wiggler\1p0T-300mA-0p12x1p2mrad.dat
#C I20EDE 1.0T 300mA 0.12x1.2mrad
#S 1 File written by xplot on Tue Dec 07 18:27:33 2010
#N 2
#L    Energy [eV]  Flux [ph/s/0.1%bw]
50 9.50235E+012 
100 1.50648E+013 
150 1.97006E+013 
200 2.38054E+013 
250 2.75438E+013 
300 3.10042E+013 
350 3.42412E+013 
400 3.72916E+013 
450 4.01819E+013 
500 4.29316E+013 
550 4.55561E+013 
600 4.80675E+013 
650 5.04757E+013 
700 5.27889E+013 
750 5.5014E+013 
800 5.7157E+013 
850 5.9223E+013 
900 6.12164E+013 
950 6.31412E+013 
1000 6.50009E+013 
1050 6.67987E+013 
1100 6.85373E+013 
1150 7.02195E+013 
1200 7.18474E+013 
1250 7.34234E+013 
1300 7.49493E+013 
1350 7.6427E+013 
1400 7.78583E+013 
1450 7.92446E+013 
1500 8.05876E+013 
1550 8.18885E+013 
1600 8.31488E+013 
1650 8.43696E+013 
1700 8.5552E+013 
1750 8.66973E+013 
1800 8.78065E+013 
1850 8.88806E+013 
1900 8.99204E+013 
1950 9.0927E+013 
2000 9.19012E+013 
2050 9.28439E+013 
2100 9.37557E+013 
2150 9.46376E+013 
2200 9.54902E+013 
2250 9.63142E+013 
2300 9.71104E+013 
2350 9.78794E+013 
2400 9.86218E+013 
2450 9.93382E+013 
2500 1.00029E+014 
2550 1.00696E+014 
2600 1.01338E+014 
2650 1.01956E+014 
2700 1.02551E+014 
2750 1.03124E+014 
2800 1.03674E+014 
2850 1.04203E+014 
2900 1.0471E+014 
2950 1.05197E+014 
3000 1.05664E+014 
3050 1.0611E+014 
3100 1.06537E+014 
3150 1.06945E+014 
3200 1.07335E+014 
3250 1.07706E+014 
3300 1.08059E+014 
3350 1.08395E+014 
3400 1.08713E+014 
3450 1.09015E+014 
3500 1.09301E+014 
3550 1.0957E+014 
3600 1.09823E+014 
3650 1.10061E+014 
3700 1.10284E+014 
3750 1.10492E+014 
3800 1.10686E+014 
3850 1.10865E+014 
3900 1.11031E+014 
3950 1.11183E+014 
4000 1.11321E+014 
4050 1.11446E+014 
4100 1.11559E+014 
4150 1.11659E+014 
4200 1.11747E+014 
4250 1.11822E+014 
4300 1.11886E+014 
4350 1.11938E+014 
4400 1.11979E+014 
4450 1.12009E+014 
4500 1.12028E+014 
4550 1.12036E+014 
4600 1.12034E+014 
4650 1.12022E+014 
4700 1.11999E+014 
4750 1.11967E+014 
4800 1.11926E+014 
4850 1.11875E+014 
4900 1.11815E+014 
4950 1.11745E+014 
5000 1.11667E+014 
5050 1.11581E+014 
5100 1.11486E+014 
5150 1.11383E+014 
5200 1.11271E+014 
5250 1.11152E+014 
5300 1.11025E+014 
5350 1.10891E+014 
5400 1.10749E+014 
5450 1.106E+014 
5500 1.10444E+014 
5550 1.10281E+014 
5600 1.10111E+014 
5650 1.09935E+014 
5700 1.09752E+014 
5750 1.09563E+014 
5800 1.09368E+014 
5850 1.09166E+014 
5900 1.08959E+014 
5950 1.08746E+014 
6000 1.08528E+014 
6050 1.08304E+014 
6100 1.08074E+014 
6150 1.07839E+014 
6200 1.076E+014 
6250 1.07355E+014 
6300 1.07106E+014 
6350 1.06851E+014 
6400 1.06592E+014 
6450 1.06329E+014 
6500 1.06061E+014 
6550 1.05789E+014 
6600 1.05512E+014 
6650 1.05232E+014 
6700 1.04948E+014 
6750 1.04659E+014 
6800 1.04367E+014 
6850 1.04072E+014 
6900 1.03772E+014 
6950 1.0347E+014 
7000 1.03164E+014 
7050 1.02854E+014 
7100 1.02542E+014 
7150 1.02226E+014 
7200 1.01907E+014 
7250 1.01586E+014 
7300 1.01261E+014 
7350 1.00934E+014 
7400 1.00604E+014 
7450 1.00272E+014 
7500 9.9937E+013 
7550 9.95996E+013 
7600 9.92599E+013 
7650 9.89179E+013 
7700 9.85737E+013 
7750 9.82273E+013 
7800 9.78789E+013 
7850 9.75285E+013 
7900 9.71762E+013 
7950 9.68221E+013 
8000 9.64661E+013 
8050 9.61085E+013 
8100 9.57491E+013 
8150 9.53883E+013 
8200 9.50258E+013 
8250 9.46619E+013 
8300 9.42966E+013 
8350 9.393E+013 
8400 9.35621E+013 
8450 9.31929E+013 
8500 9.28226E+013 
8550 9.24511E+013 
8600 9.20786E+013 
8650 9.17051E+013 
8700 9.13306E+013 
8750 9.09552E+013 
8800 9.0579E+013 
8850 9.02019E+013 
8900 8.98241E+013 
8950 8.94456E+013 
9000 8.90664E+013 
9050 8.86866E+013 
9100 8.83062E+013 
9150 8.79253E+013 
9200 8.75439E+013 
9250 8.7162E+013 
9300 8.67798E+013 
9350 8.63972E+013 
9400 8.60143E+013 
9450 8.56311E+013 
9500 8.52477E+013 
9550 8.48641E+013 
9600 8.44803E+013 
9650 8.40963E+013 
9700 8.37123E+013 
9750 8.33282E+013 
9800 8.29442E+013 
9850 8.25601E+013 
9900 8.21761E+013 
9950 8.17921E+013 
10000 8.14083E+013 
10050 8.10246E+013 
10100 8.0641E+013 
10150 8.02577E+013 
10200 7.98746E+013 
10250 7.94918E+013 
10300 7.91093E+013 
10350 7.87271E+013 
10400 7.83452E+013 
10450 7.79637E+013 
10500 7.75826E+013 
10550 7.72019E+013 
10600 7.68217E+013 
10650 7.6442E+013 
10700 7.60627E+013 
10750 7.5684E+013 
10800 7.53058E+013 
10850 7.49282E+013 
10900 7.45512E+013 
10950 7.41748E+013 
11000 7.3799E+013 
11050 7.34239E+013 
11100 7.30494E+013 
11150 7.26757E+013 
11200 7.23027E+013 
11250 7.19304E+013 
11300 7.15588E+013 
11350 7.1188E+013 
11400 7.0818E+013 
11450 7.04488E+013 
11500 7.00805E+013 
11550 6.97129E+013 
11600 6.93462E+013 
11650 6.89804E+013 
11700 6.86155E+013 
11750 6.82515E+013 
11800 6.78884E+013 
11850 6.75262E+013 
11900 6.7165E+013 
11950 6.68047E+013 
12000 6.64454E+013 
12050 6.60871E+013 
12100 6.57298E+013 
12150 6.53734E+013 
12200 6.50181E+013 
12250 6.46639E+013 
12300 6.43106E+013 
12350 6.39585E+013 
12400 6.36073E+013 
12450 6.32573E+013 
12500 6.29084E+013 
12550 6.25605E+013 
12600 6.22138E+013 
12650 6.18681E+013 
12700 6.15236E+013 
12750 6.11802E+013 
12800 6.0838E+013 
12850 6.04969E+013 
12900 6.0157E+013 
12950 5.98182E+013 
13000 5.94806E+013 
13050 5.91442E+013 
13100 5.8809E+013 
13150 5.84749E+013 
13200 5.81421E+013 
13250 5.78104E+013 
13300 5.748E+013 
13350 5.71508E+013 
13400 5.68228E+013 
13450 5.6496E+013 
13500 5.61705E+013 
13550 5.58462E+013 
13600 5.55232E+013 
13650 5.52014E+013 
13700 5.48808E+013 
13750 5.45615E+013 
13800 5.42435E+013 
13850 5.39268E+013 
13900 5.36113E+013 
13950 5.3297E+013 
14000 5.29841E+013 
14050 5.26724E+013 
14100 5.2362E+013 
14150 5.20529E+013 
14200 5.17451E+013 
14250 5.14386E+013 
14300 5.11333E+013 
14350 5.08294E+013 
14400 5.05267E+013 
14450 5.02254E+013 
14500 4.99253E+013 
14550 4.96266E+013 
14600 4.93291E+013 
14650 4.9033E+013 
14700 4.87381E+013 
14750 4.84446E+013 
14800 4.81523E+013 
14850 4.78614E+013 
14900 4.75718E+013 
14950 4.72835E+013 
15000 4.69965E+013 
15050 4.67108E+013 
15100 4.64264E+013 
15150 4.61433E+013 
15200 4.58616E+013 
15250 4.55811E+013 
15300 4.5302E+013 
15350 4.50241E+013 
15400 4.47476E+013 
15450 4.44723E+013 
15500 4.41984E+013 
15550 4.39258E+013 
15600 4.36545E+013 
15650 4.33845E+013 
15700 4.31158E+013 
15750 4.28484E+013 
15800 4.25823E+013 
15850 4.23175E+013 
15900 4.2054E+013 
15950 4.17918E+013 
16000 4.15308E+013 
16050 4.12712E+013 
16100 4.10129E+013 
16150 4.07558E+013 
16200 4.05E+013 
16250 4.02456E+013 
16300 3.99924E+013 
16350 3.97405E+013 
16400 3.94898E+013 
16450 3.92405E+013 
16500 3.89924E+013 
16550 3.87456E+013 
16600 3.85E+013 
16650 3.82557E+013 
16700 3.80127E+013 
16750 3.77709E+013 
16800 3.75305E+013 
16850 3.72912E+013 
16900 3.70532E+013 
16950 3.68165E+013 
17000 3.6581E+013 
17050 3.63467E+013 
17100 3.61137E+013 
17150 3.58819E+013 
17200 3.56514E+013 
17250 3.54221E+013 
17300 3.5194E+013 
17350 3.49671E+013 
17400 3.47415E+013 
17450 3.45171E+013 
17500 3.42939E+013 
17550 3.40718E+013 
17600 3.38511E+013 
17650 3.36315E+013 
17700 3.34131E+013 
17750 3.31959E+013 
17800 3.29799E+013 
17850 3.27651E+013 
17900 3.25515E+013 
17950 3.2339E+013 
18000 3.21278E+013 
18050 3.19177E+013 
18100 3.17088E+013 
18150 3.1501E+013 
18200 3.12944E+013 
18250 3.1089E+013 
18300 3.08847E+013 
18350 3.06816E+013 
18400 3.04796E+013 
18450 3.02788E+013 
18500 3.00791E+013 
18550 2.98805E+013 
18600 2.96831E+013 
18650 2.94868E+013 
18700 2.92916E+013 
18750 2.90975E+013 
18800 2.89046E+013 
18850 2.87127E+013 
18900 2.8522E+013 
18950 2.83323E+013 
19000 2.81438E+013 
19050 2.79564E+013 
19100 2.777E+013 
19150 2.75847E+013 
19200 2.74005E+013 
19250 2.72174E+013 
19300 2.70354E+013 
19350 2.68544E+013 
19400 2.66745E+013 
19450 2.64956E+013 
19500 2.63178E+013 
19550 2.61411E+013 
19600 2.59654E+013 
19650 2.57907E+013 
19700 2.5617E+013 
19750 2.54444E+013 
19800 2.52729E+013 
19850 2.51023E+013 
19900 2.49328E+013 
19950 2.47643E+013 
20000 2.45968E+013 
20050 2.44303E+013 
20100 2.42648E+013 
20150 2.41003E+013 
20200 2.39367E+013 
20250 2.37742E+013 
20300 2.36127E+013 
20350 2.34521E+013 
20400 2.32925E+013 
20450 2.31339E+013 
20500 2.29763E+013 
20550 2.28196E+013 
20600 2.26638E+013 
20650 2.2509E+013 
20700 2.23552E+013 
20750 2.22023E+013 
20800 2.20504E+013 
20850 2.18993E+013 
20900 2.17493E+013 
20950 2.16001E+013 
21000 2.14518E+013 
21050 2.13045E+013 
21100 2.11581E+013 
21150 2.10126E+013 
21200 2.0868E+013 
21250 2.07243E+013 
21300 2.05815E+013 
21350 2.04396E+013 
21400 2.02985E+013 
21450 2.01584E+013 
21500 2.00191E+013 
21550 1.98807E+013 
21600 1.97432E+013 
21650 1.96065E+013 
21700 1.94707E+013 
21750 1.93357E+013 
21800 1.92016E+013 
21850 1.90684E+013 
21900 1.8936E+013 
21950 1.88044E+013 
22000 1.86736E+013 
22050 1.85437E+013 
22100 1.84146E+013 
22150 1.82864E+013 
22200 1.81589E+013 
22250 1.80323E+013 
22300 1.79064E+013 
22350 1.77814E+013 
22400 1.76572E+013 
22450 1.75337E+013 
22500 1.74111E+013 
22550 1.72892E+013 
22600 1.71682E+013 
22650 1.70479E+013 
22700 1.69284E+013 
22750 1.68096E+013 
22800 1.66916E+013 
22850 1.65744E+013 
22900 1.64579E+013 
22950 1.63422E+013 
23000 1.62273E+013 
23050 1.6113E+013 
23100 1.59996E+013 
23150 1.58868E+013 
23200 1.57748E+013 
23250 1.56635E+013 
23300 1.5553E+013 
23350 1.54432E+013 
23400 1.53341E+013 
23450 1.52257E+013 
23500 1.5118E+013 
23550 1.5011E+013 
23600 1.49047E+013 
23650 1.47991E+013 
23700 1.46942E+013 
23750 1.459E+013 
23800 1.44865E+013 
23850 1.43837E+013 
23900 1.42815E+013 
23950 1.418E+013 
24000 1.40792E+013 
24050 1.39791E+013 
24100 1.38796E+013 
24150 1.37808E+013 
24200 1.36826E+013 
24250 1.35851E+013 
24300 1.34882E+013 
24350 1.3392E+013 
24400 1.32964E+013 
24450 1.32014E+013 
24500 1.31071E+013 
24550 1.30134E+013 
24600 1.29204E+013 
24650 1.28279E+013 
24700 1.27361E+013 
24750 1.26449E+013 
24800 1.25543E+013 
24850 1.24643E+013 
24900 1.23749E+013 
24950 1.22861E+013 
25000 1.21979E+013 
25050 1.21103E+013 
25100 1.20233E+013 
25150 1.19369E+013 
25200 1.18511E+013 
25250 1.17658E+013 
25300 1.16811E+013 
25350 1.1597E+013 
25400 1.15135E+013 
25450 1.14305E+013 
25500 1.13481E+013 
25550 1.12662E+013 
25600 1.11849E+013 
25650 1.11042E+013 
25700 1.1024E+013 
25750 1.09443E+013 
25800 1.08652E+013 
25850 1.07866E+013 
25900 1.07086E+013 
25950 1.0631E+013 
26000 1.05541E+013 
26050 1.04776E+013 
26100 1.04017E+013 
26150 1.03263E+013 
26200 1.02514E+013 
26250 1.0177E+013 
26300 1.01031E+013 
26350 1.00297E+013 
26400 9.95686E+012 
26450 9.8845E+012 
26500 9.81263E+012 
26550 9.74126E+012 
26600 9.67037E+012 
26650 9.59997E+012 
26700 9.53006E+012 
26750 9.46063E+012 
26800 9.39168E+012 
26850 9.32321E+012 
26900 9.25521E+012 
26950 9.18767E+012 
27000 9.12061E+012 
27050 9.05401E+012 
27100 8.98787E+012 
27150 8.92219E+012 
27200 8.85696E+012 
27250 8.79219E+012 
27300 8.72786E+012 
27350 8.66399E+012 
27400 8.60055E+012 
27450 8.53756E+012 
27500 8.47501E+012 
27550 8.41289E+012 
27600 8.3512E+012 
27650 8.28995E+012 
27700 8.22912E+012 
27750 8.16872E+012 
27800 8.10873E+012 
27850 8.04917E+012 
27900 7.99002E+012 
27950 7.93129E+012 
28000 7.87297E+012 
28050 7.81506E+012 
28100 7.75755E+012 
28150 7.70045E+012 
28200 7.64375E+012 
28250 7.58744E+012 
28300 7.53153E+012 
28350 7.47602E+012 
28400 7.42089E+012 
28450 7.36615E+012 
28500 7.3118E+012 
28550 7.25783E+012 
28600 7.20424E+012 
28650 7.15103E+012 
28700 7.09819E+012 
28750 7.04573E+012 
28800 6.99363E+012 
28850 6.94191E+012 
28900 6.89055E+012 
28950 6.83955E+012 
29000 6.78892E+012 
29050 6.73864E+012 
29100 6.68872E+012 
29150 6.63916E+012 
29200 6.58994E+012 
29250 6.54107E+012 
29300 6.49256E+012 
29350 6.44438E+012 
29400 6.39655E+012 
29450 6.34906E+012 
29500 6.30191E+012 
29550 6.25509E+012 
29600 6.2086E+012 
29650 6.16245E+012 
29700 6.11663E+012 
29750 6.07113E+012 
29800 6.02596E+012 
29850 5.9811E+012 
29900 5.93657E+012 
29950 5.89236E+012 
30000 5.84847E+012 
30050 5.80488E+012 
30100 5.76161E+012 
30150 5.71865E+012 
30200 5.676E+012 
30250 5.63365E+012 
30300 5.59161E+012 
30350 5.54987E+012 
30400 5.50843E+012 
30450 5.46728E+012 
30500 5.42643E+012 
30550 5.38588E+012 
30600 5.34561E+012 
30650 5.30564E+012 
30700 5.26595E+012 
30750 5.22655E+012 
30800 5.18743E+012 
30850 5.1486E+012 
30900 5.11004E+012 
30950 5.07176E+012 
31000 5.03376E+012 
31050 4.99603E+012 
31100 4.95858E+012 
31150 4.92139E+012 
31200 4.88448E+012 
31250 4.84783E+012 
31300 4.81144E+012 
31350 4.77532E+012 
31400 4.73946E+012 
31450 4.70386E+012 
31500 4.66852E+012 
31550 4.63344E+012 
31600 4.59861E+012 
31650 4.56403E+012 
31700 4.5297E+012 
31750 4.49562E+012 
31800 4.46179E+012 
31850 4.42821E+012 
31900 4.39486E+012 
31950 4.36177E+012 
32000 4.32891E+012 
32050 4.29629E+012 
32100 4.26391E+012 
32150 4.23176E+012 
32200 4.19985E+012 
32250 4.16817E+012 
32300 4.13673E+012 
32350 4.10551E+012 
32400 4.07452E+012 
32450 4.04375E+012 
32500 4.01321E+012 
32550 3.9829E+012 
32600 3.9528E+012 
32650 3.92293E+012 
32700 3.89327E+012 
32750 3.86383E+012 
32800 3.83461E+012 
32850 3.8056E+012 
32900 3.7768E+012 
32950 3.74822E+012 
33000 3.71984E+012 
33050 3.69167E+012 
33100 3.66371E+012 
33150 3.63595E+012 
33200 3.6084E+012 
33250 3.58105E+012 
33300 3.5539E+012 
33350 3.52695E+012 
33400 3.50019E+012 
33450 3.47364E+012 
33500 3.44728E+012 
33550 3.42111E+012 
33600 3.39514E+012 
33650 3.36936E+012 
33700 3.34376E+012 
33750 3.31836E+012 
33800 3.29314E+012 
33850 3.26811E+012 
33900 3.24327E+012 
33950 3.2186E+012 
34000 3.19412E+012 
34050 3.16982E+012 
34100 3.1457E+012 
34150 3.12176E+012 
34200 3.09799E+012 
34250 3.0744E+012 
34300 3.05099E+012 
34350 3.02775E+012 
34400 3.00468E+012 
34450 2.98178E+012 
34500 2.95905E+012 
34550 2.93649E+012 
34600 2.9141E+012 
34650 2.89187E+012 
34700 2.8698E+012 
34750 2.8479E+012 
34800 2.82617E+012 
34850 2.80459E+012 
34900 2.78318E+012 
34950 2.76192E+012 
35000 2.74082E+012 
35050 2.71988E+012 
35100 2.6991E+012 
35150 2.67846E+012 
35200 2.65799E+012 
35250 2.63766E+012 
35300 2.61749E+012 
35350 2.59746E+012 
35400 2.57759E+012 
35450 2.55786E+012 
35500 2.53828E+012 
35550 2.51885E+012 
35600 2.49956E+012 
35650 2.48041E+012 
35700 2.46141E+012 
35750 2.44255E+012 
35800 2.42383E+012 
35850 2.40525E+012 
35900 2.38681E+012 
35950 2.36851E+012 
36000 2.35034E+012 
36050 2.33231E+012 
36100 2.31441E+012 
36150 2.29665E+012 
36200 2.27902E+012 
36250 2.26153E+012 
36300 2.24416E+012 
36350 2.22692E+012 
36400 2.20982E+012 
36450 2.19284E+012 
36500 2.17599E+012 
36550 2.15926E+012 
36600 2.14266E+012 
36650 2.12619E+012 
36700 2.10983E+012 
36750 2.09361E+012 
36800 2.0775E+012 
36850 2.06151E+012 
36900 2.04565E+012 
36950 2.0299E+012 
37000 2.01427E+012 
37050 1.99876E+012 
37100 1.98336E+012 
37150 1.96809E+012 
37200 1.95292E+012 
37250 1.93787E+012 
37300 1.92294E+012 
37350 1.90811E+012 
37400 1.8934E+012 
37450 1.8788E+012 
37500 1.86431E+012 
37550 1.84993E+012 
37600 1.83565E+012 
37650 1.82149E+012 
37700 1.80743E+012 
37750 1.79347E+012 
37800 1.77963E+012 
37850 1.76588E+012 
37900 1.75224E+012 
37950 1.73871E+012 
38000 1.72527E+012 
38050 1.71194E+012 
38100 1.69871E+012 
38150 1.68558E+012 
38200 1.67254E+012 
38250 1.65961E+012 
38300 1.64677E+012 
38350 1.63403E+012 
38400 1.62139E+012 
38450 1.60884E+012 
38500 1.59639E+012 
38550 1.58404E+012 
38600 1.57177E+012 
38650 1.5596E+012 
38700 1.54752E+012 
38750 1.53553E+012 
38800 1.52364E+012 
38850 1.51183E+012 
38900 1.50011E+012 
38950 1.48849E+012 
39000 1.47695E+012 
39050 1.4655E+012 
39100 1.45413E+012 
39150 1.44285E+012 
39200 1.43166E+012 
39250 1.42055E+012 
39300 1.40953E+012 
39350 1.39859E+012 
39400 1.38773E+012 
39450 1.37696E+012 
39500 1.36627E+012 
39550 1.35566E+012 
39600 1.34513E+012 
39650 1.33468E+012 
39700 1.32431E+012 
39750 1.31402E+012 
39800 1.3038E+012 
39850 1.29367E+012 
39900 1.28361E+012 
39950 1.27363E+012 
40000 1.26373E+012 
40050 1.2539E+012 
40100 1.24414E+012 
40150 1.23446E+012 
40200 1.22486E+012 
40250 1.21532E+012 
40300 1.20586E+012 
40350 1.19648E+012 
40400 1.18716E+012 
40450 1.17791E+012 
40500 1.16874E+012 
40550 1.15964E+012 
40600 1.1506E+012 
40650 1.14164E+012 
40700 1.13274E+012 
40750 1.12391E+012 
40800 1.11515E+012 
40850 1.10646E+012 
40900 1.09783E+012 
40950 1.08927E+012 
41000 1.08077E+012 
41050 1.07234E+012 
41100 1.06397E+012 
41150 1.05567E+012 
41200 1.04743E+012 
41250 1.03926E+012 
41300 1.03114E+012 
41350 1.02309E+012 
41400 1.0151E+012 
41450 1.00718E+012 
41500 9.99308E+011 
41550 9.91501E+011 
41600 9.83755E+011 
41650 9.76068E+011 
41700 9.68439E+011 
41750 9.6087E+011 
41800 9.53358E+011 
41850 9.45904E+011 
41900 9.38508E+011 
41950 9.31168E+011 
42000 9.23885E+011 
42050 9.16658E+011 
42100 9.09486E+011 
42150 9.0237E+011 
42200 8.95308E+011 
42250 8.883E+011 
42300 8.81347E+011 
42350 8.74447E+011 
42400 8.676E+011 
42450 8.60806E+011 
42500 8.54064E+011 
42550 8.47374E+011 
42600 8.40735E+011 
42650 8.34148E+011 
42700 8.27611E+011 
42750 8.21125E+011 
42800 8.14689E+011 
42850 8.08302E+011 
42900 8.01965E+011 
42950 7.95677E+011 
43000 7.89437E+011 
43050 7.83245E+011 
43100 7.77101E+011 
43150 7.71005E+011 
43200 7.64955E+011 
43250 7.58952E+011 
43300 7.52996E+011 
43350 7.47086E+011 
43400 7.41221E+011 
43450 7.35401E+011 
43500 7.29627E+011 
43550 7.23897E+011 
43600 7.18212E+011 
43650 7.1257E+011 
43700 7.06972E+011 
43750 7.01417E+011 
43800 6.95906E+011 
43850 6.90437E+011 
43900 6.8501E+011 
43950 6.79625E+011 
44000 6.74282E+011 
44050 6.6898E+011 
44100 6.6372E+011 
44150 6.585E+011 
44200 6.5332E+011 
44250 6.48181E+011 
44300 6.43081E+011 
44350 6.38021E+011 
44400 6.33001E+011 
44450 6.28019E+011 
44500 6.23076E+011 
44550 6.18171E+011 
44600 6.13304E+011 
44650 6.08475E+011 
44700 6.03683E+011 
44750 5.98929E+011 
44800 5.94211E+011 
44850 5.8953E+011 
44900 5.84885E+011 
44950 5.80277E+011 
45000 5.75704E+011 
45050 5.71167E+011 
45100 5.66665E+011 
45150 5.62198E+011 
45200 5.57766E+011 
45250 5.53368E+011 
45300 5.49004E+011 
45350 5.44675E+011 
45400 5.40378E+011 
45450 5.36116E+011 
45500 5.31886E+011 
45550 5.2769E+011 
45600 5.23526E+011 
45650 5.19394E+011 
45700 5.15295E+011 
45750 5.11227E+011 
45800 5.07191E+011 
45850 5.03187E+011 
45900 4.99214E+011 
45950 4.95271E+011 
46000 4.9136E+011 
46050 4.87479E+011 
46100 4.83628E+011 
46150 4.79807E+011 
46200 4.76016E+011 
46250 4.72254E+011 
46300 4.68522E+011 
46350 4.64819E+011 
46400 4.61145E+011 
46450 4.57499E+011 
46500 4.53882E+011 
46550 4.50293E+011 
46600 4.46732E+011 
46650 4.43199E+011 
46700 4.39694E+011 
46750 4.36216E+011 
46800 4.32765E+011 
46850 4.2934E+011 
46900 4.25943E+011 
46950 4.22572E+011 
47000 4.19228E+011 
47050 4.1591E+011 
47100 4.12617E+011 
47150 4.09351E+011 
47200 4.06109E+011 
47250 4.02894E+011 
47300 3.99703E+011 
47350 3.96537E+011 
47400 3.93396E+011 
47450 3.9028E+011 
47500 3.87188E+011 
47550 3.8412E+011 
47600 3.81076E+011 
47650 3.78056E+011 
47700 3.7506E+011 
47750 3.72087E+011 
47800 3.69137E+011 
47850 3.66211E+011 
