#F U:\Beamline I20\I20-2_EDE\Wigglers\xop\83mm-small-wiggler\EDE wiggler\1p2T-300mA-0p12x1p3mrad.dat
#C I20EDE 1.2T 300mA 0.12x1.3mrad
#S 1 File written by xplot on Tue Dec 07 18:18:06 2010
#N 2
#L    Energy [eV]  Flux [ph/s/0.1%bw]
50 9.07202E+012 
100 1.4389E+013 
150 1.88276E+013 
200 2.27658E+013 
250 2.63603E+013 
300 2.96955E+013 
350 3.28234E+013 
400 3.5779E+013 
450 3.85873E+013 
500 4.12669E+013 
550 4.38323E+013 
600 4.62948E+013 
650 4.86638E+013 
700 5.0947E+013 
750 5.31508E+013 
800 5.52808E+013 
850 5.73417E+013 
900 5.93376E+013 
950 6.12722E+013 
1000 6.31487E+013 
1050 6.497E+013 
1100 6.67386E+013 
1150 6.8457E+013 
1200 7.01271E+013 
1250 7.17511E+013 
1300 7.33305E+013 
1350 7.48672E+013 
1400 7.63626E+013 
1450 7.78181E+013 
1500 7.9235E+013 
1550 8.06146E+013 
1600 8.1958E+013 
1650 8.32663E+013 
1700 8.45405E+013 
1750 8.57815E+013 
1800 8.69904E+013 
1850 8.81679E+013 
1900 8.93148E+013 
1950 9.0432E+013 
2000 9.15201E+013 
2050 9.258E+013 
2100 9.36122E+013 
2150 9.46175E+013 
2200 9.55964E+013 
2250 9.65495E+013 
2300 9.74775E+013 
2350 9.83808E+013 
2400 9.926E+013 
2450 1.00116E+014 
2500 1.00948E+014 
2550 1.01758E+014 
2600 1.02546E+014 
2650 1.03312E+014 
2700 1.04057E+014 
2750 1.04781E+014 
2800 1.05485E+014 
2850 1.06169E+014 
2900 1.06833E+014 
2950 1.07477E+014 
3000 1.08103E+014 
3050 1.08711E+014 
3100 1.093E+014 
3150 1.09871E+014 
3200 1.10425E+014 
3250 1.10962E+014 
3300 1.11481E+014 
3350 1.11984E+014 
3400 1.12471E+014 
3450 1.12942E+014 
3500 1.13397E+014 
3550 1.13837E+014 
3600 1.14262E+014 
3650 1.14672E+014 
3700 1.15067E+014 
3750 1.15447E+014 
3800 1.15814E+014 
3850 1.16167E+014 
3900 1.16506E+014 
3950 1.16832E+014 
4000 1.17145E+014 
4050 1.17444E+014 
4100 1.17731E+014 
4150 1.18006E+014 
4200 1.18268E+014 
4250 1.18518E+014 
4300 1.18756E+014 
4350 1.18983E+014 
4400 1.19198E+014 
4450 1.19402E+014 
4500 1.19595E+014 
4550 1.19777E+014 
4600 1.19948E+014 
4650 1.20109E+014 
4700 1.20259E+014 
4750 1.20399E+014 
4800 1.20529E+014 
4850 1.2065E+014 
4900 1.2076E+014 
4950 1.20862E+014 
5000 1.20953E+014 
5050 1.21036E+014 
5100 1.2111E+014 
5150 1.21174E+014 
5200 1.21231E+014 
5250 1.21278E+014 
5300 1.21317E+014 
5350 1.21348E+014 
5400 1.21371E+014 
5450 1.21385E+014 
5500 1.21392E+014 
5550 1.21391E+014 
5600 1.21383E+014 
5650 1.21367E+014 
5700 1.21343E+014 
5750 1.21313E+014 
5800 1.21275E+014 
5850 1.21231E+014 
5900 1.21179E+014 
5950 1.21121E+014 
6000 1.21057E+014 
6050 1.20986E+014 
6100 1.20908E+014 
6150 1.20824E+014 
6200 1.20734E+014 
6250 1.20638E+014 
6300 1.20536E+014 
6350 1.20429E+014 
6400 1.20315E+014 
6450 1.20196E+014 
6500 1.20071E+014 
6550 1.19941E+014 
6600 1.19806E+014 
6650 1.19666E+014 
6700 1.1952E+014 
6750 1.19369E+014 
6800 1.19214E+014 
6850 1.19053E+014 
6900 1.18888E+014 
6950 1.18718E+014 
7000 1.18544E+014 
7050 1.18365E+014 
7100 1.18181E+014 
7150 1.17994E+014 
7200 1.17802E+014 
7250 1.17606E+014 
7300 1.17406E+014 
7350 1.17202E+014 
7400 1.16993E+014 
7450 1.16782E+014 
7500 1.16566E+014 
7550 1.16347E+014 
7600 1.16124E+014 
7650 1.15897E+014 
7700 1.15667E+014 
7750 1.15434E+014 
7800 1.15197E+014 
7850 1.14957E+014 
7900 1.14714E+014 
7950 1.14468E+014 
8000 1.14218E+014 
8050 1.13966E+014 
8100 1.13711E+014 
8150 1.13453E+014 
8200 1.13192E+014 
8250 1.12928E+014 
8300 1.12662E+014 
8350 1.12393E+014 
8400 1.12121E+014 
8450 1.11847E+014 
8500 1.11571E+014 
8550 1.11292E+014 
8600 1.11011E+014 
8650 1.10727E+014 
8700 1.10441E+014 
8750 1.10153E+014 
8800 1.09864E+014 
8850 1.09571E+014 
8900 1.09277E+014 
8950 1.08981E+014 
9000 1.08683E+014 
9050 1.08383E+014 
9100 1.08082E+014 
9150 1.07778E+014 
9200 1.07473E+014 
9250 1.07166E+014 
9300 1.06858E+014 
9350 1.06548E+014 
9400 1.06236E+014 
9450 1.05923E+014 
9500 1.05608E+014 
9550 1.05292E+014 
9600 1.04975E+014 
9650 1.04656E+014 
9700 1.04336E+014 
9750 1.04015E+014 
9800 1.03692E+014 
9850 1.03369E+014 
9900 1.03044E+014 
9950 1.02718E+014 
10000 1.02391E+014 
10050 1.02063E+014 
10100 1.01734E+014 
10150 1.01404E+014 
10200 1.01073E+014 
10250 1.00742E+014 
10300 1.00409E+014 
10350 1.00076E+014 
10400 9.97417E+013 
10450 9.94069E+013 
10500 9.90712E+013 
10550 9.87349E+013 
10600 9.8398E+013 
10650 9.80604E+013 
10700 9.77223E+013 
10750 9.73836E+013 
10800 9.70443E+013 
10850 9.67045E+013 
10900 9.63643E+013 
10950 9.60236E+013 
11000 9.56825E+013 
11050 9.5341E+013 
11100 9.49991E+013 
11150 9.46569E+013 
11200 9.43144E+013 
11250 9.39716E+013 
11300 9.36285E+013 
11350 9.32852E+013 
11400 9.29417E+013 
11450 9.2598E+013 
11500 9.22541E+013 
11550 9.19101E+013 
11600 9.15659E+013 
11650 9.12217E+013 
11700 9.08774E+013 
11750 9.0533E+013 
11800 9.01886E+013 
11850 8.98442E+013 
11900 8.94998E+013 
11950 8.91554E+013 
12000 8.88111E+013 
12050 8.84668E+013 
12100 8.81227E+013 
12150 8.77786E+013 
12200 8.74347E+013 
12250 8.70909E+013 
12300 8.67473E+013 
12350 8.64039E+013 
12400 8.60607E+013 
12450 8.57177E+013 
12500 8.53749E+013 
12550 8.50324E+013 
12600 8.46901E+013 
12650 8.43482E+013 
12700 8.40065E+013 
12750 8.36652E+013 
12800 8.33242E+013 
12850 8.29835E+013 
12900 8.26432E+013 
12950 8.23033E+013 
13000 8.19637E+013 
13050 8.16246E+013 
13100 8.12859E+013 
13150 8.09476E+013 
13200 8.06098E+013 
13250 8.02724E+013 
13300 7.99355E+013 
13350 7.95991E+013 
13400 7.92632E+013 
13450 7.89278E+013 
13500 7.85929E+013 
13550 7.82585E+013 
13600 7.79247E+013 
13650 7.75915E+013 
13700 7.72588E+013 
13750 7.69267E+013 
13800 7.65952E+013 
13850 7.62643E+013 
13900 7.5934E+013 
13950 7.56044E+013 
14000 7.52753E+013 
14050 7.49469E+013 
14100 7.46192E+013 
14150 7.42921E+013 
14200 7.39657E+013 
14250 7.36399E+013 
14300 7.33148E+013 
14350 7.29905E+013 
14400 7.26668E+013 
14450 7.23439E+013 
14500 7.20217E+013 
14550 7.17002E+013 
14600 7.13794E+013 
14650 7.10594E+013 
14700 7.07401E+013 
14750 7.04216E+013 
14800 7.01038E+013 
14850 6.97869E+013 
14900 6.94707E+013 
14950 6.91553E+013 
15000 6.88407E+013 
15050 6.85268E+013 
15100 6.82138E+013 
15150 6.79016E+013 
15200 6.75902E+013 
15250 6.72797E+013 
15300 6.69699E+013 
15350 6.66611E+013 
15400 6.6353E+013 
15450 6.60458E+013 
15500 6.57394E+013 
15550 6.54339E+013 
15600 6.51292E+013 
15650 6.48255E+013 
15700 6.45225E+013 
15750 6.42205E+013 
15800 6.39193E+013 
15850 6.3619E+013 
15900 6.33196E+013 
15950 6.30211E+013 
16000 6.27235E+013 
16050 6.24268E+013 
16100 6.2131E+013 
16150 6.1836E+013 
16200 6.1542E+013 
16250 6.12489E+013 
16300 6.09568E+013 
16350 6.06655E+013 
16400 6.03751E+013 
16450 6.00857E+013 
16500 5.97972E+013 
16550 5.95097E+013 
16600 5.9223E+013 
16650 5.89373E+013 
16700 5.86526E+013 
16750 5.83687E+013 
16800 5.80859E+013 
16850 5.78039E+013 
16900 5.75229E+013 
16950 5.72429E+013 
17000 5.69638E+013 
17050 5.66856E+013 
17100 5.64084E+013 
17150 5.61322E+013 
17200 5.58569E+013 
17250 5.55826E+013 
17300 5.53092E+013 
17350 5.50368E+013 
17400 5.47654E+013 
17450 5.44949E+013 
17500 5.42254E+013 
17550 5.39568E+013 
17600 5.36892E+013 
17650 5.34226E+013 
17700 5.31569E+013 
17750 5.28922E+013 
17800 5.26285E+013 
17850 5.23658E+013 
17900 5.2104E+013 
17950 5.18432E+013 
18000 5.15833E+013 
18050 5.13245E+013 
18100 5.10666E+013 
18150 5.08096E+013 
18200 5.05537E+013 
18250 5.02987E+013 
18300 5.00447E+013 
18350 4.97916E+013 
18400 4.95396E+013 
18450 4.92885E+013 
18500 4.90383E+013 
18550 4.87892E+013 
18600 4.8541E+013 
18650 4.82938E+013 
18700 4.80475E+013 
18750 4.78022E+013 
18800 4.75579E+013 
18850 4.73146E+013 
18900 4.70722E+013 
18950 4.68308E+013 
19000 4.65903E+013 
19050 4.63509E+013 
19100 4.61124E+013 
19150 4.58748E+013 
19200 4.56382E+013 
19250 4.54026E+013 
19300 4.51679E+013 
19350 4.49342E+013 
19400 4.47015E+013 
19450 4.44697E+013 
19500 4.42389E+013 
19550 4.4009E+013 
19600 4.378E+013 
19650 4.35521E+013 
19700 4.33251E+013 
19750 4.3099E+013 
19800 4.28739E+013 
19850 4.26497E+013 
19900 4.24265E+013 
19950 4.22042E+013 
20000 4.19829E+013 
20050 4.17625E+013 
20100 4.1543E+013 
20150 4.13245E+013 
20200 4.11069E+013 
20250 4.08903E+013 
20300 4.06745E+013 
20350 4.04598E+013 
20400 4.02459E+013 
20450 4.0033E+013 
20500 3.9821E+013 
20550 3.96099E+013 
20600 3.93998E+013 
20650 3.91905E+013 
20700 3.89822E+013 
20750 3.87749E+013 
20800 3.85684E+013 
20850 3.83628E+013 
20900 3.81582E+013 
20950 3.79544E+013 
21000 3.77516E+013 
21050 3.75496E+013 
21100 3.73486E+013 
21150 3.71485E+013 
21200 3.69493E+013 
21250 3.67509E+013 
21300 3.65535E+013 
21350 3.6357E+013 
21400 3.61613E+013 
21450 3.59665E+013 
21500 3.57727E+013 
21550 3.55797E+013 
21600 3.53875E+013 
21650 3.51963E+013 
21700 3.5006E+013 
21750 3.48165E+013 
21800 3.46279E+013 
21850 3.44401E+013 
21900 3.42532E+013 
21950 3.40672E+013 
22000 3.38821E+013 
22050 3.36978E+013 
22100 3.35143E+013 
22150 3.33318E+013 
22200 3.315E+013 
22250 3.29692E+013 
22300 3.27891E+013 
22350 3.26099E+013 
22400 3.24316E+013 
22450 3.22541E+013 
22500 3.20774E+013 
22550 3.19016E+013 
22600 3.17266E+013 
22650 3.15525E+013 
22700 3.13791E+013 
22750 3.12066E+013 
22800 3.10349E+013 
22850 3.08641E+013 
22900 3.0694E+013 
22950 3.05248E+013 
23000 3.03563E+013 
23050 3.01887E+013 
23100 3.00219E+013 
23150 2.98559E+013 
23200 2.96907E+013 
23250 2.95263E+013 
23300 2.93627E+013 
23350 2.91999E+013 
23400 2.90378E+013 
23450 2.88766E+013 
23500 2.87161E+013 
23550 2.85565E+013 
23600 2.83976E+013 
23650 2.82395E+013 
23700 2.80822E+013 
23750 2.79256E+013 
23800 2.77698E+013 
23850 2.76148E+013 
23900 2.74605E+013 
23950 2.7307E+013 
24000 2.71542E+013 
24050 2.70023E+013 
24100 2.6851E+013 
24150 2.67005E+013 
24200 2.65508E+013 
24250 2.64018E+013 
24300 2.62536E+013 
24350 2.61061E+013 
24400 2.59593E+013 
24450 2.58133E+013 
24500 2.56679E+013 
24550 2.55234E+013 
24600 2.53795E+013 
24650 2.52364E+013 
24700 2.5094E+013 
24750 2.49523E+013 
24800 2.48113E+013 
24850 2.4671E+013 
24900 2.45315E+013 
24950 2.43926E+013 
25000 2.42545E+013 
25050 2.41171E+013 
25100 2.39803E+013 
25150 2.38443E+013 
25200 2.37089E+013 
25250 2.35742E+013 
25300 2.34403E+013 
25350 2.3307E+013 
25400 2.31744E+013 
25450 2.30424E+013 
25500 2.29112E+013 
25550 2.27806E+013 
25600 2.26507E+013 
25650 2.25214E+013 
25700 2.23929E+013 
25750 2.2265E+013 
25800 2.21377E+013 
25850 2.20111E+013 
25900 2.18852E+013 
25950 2.17599E+013 
26000 2.16353E+013 
26050 2.15113E+013 
26100 2.13879E+013 
26150 2.12652E+013 
26200 2.11432E+013 
26250 2.10218E+013 
26300 2.0901E+013 
26350 2.07808E+013 
26400 2.06613E+013 
26450 2.05424E+013 
26500 2.04241E+013 
26550 2.03064E+013 
26600 2.01894E+013 
26650 2.00729E+013 
26700 1.99571E+013 
26750 1.98419E+013 
26800 1.97273E+013 
26850 1.96133E+013 
26900 1.94999E+013 
26950 1.93871E+013 
27000 1.92749E+013 
27050 1.91633E+013 
27100 1.90523E+013 
27150 1.89419E+013 
27200 1.88321E+013 
27250 1.87228E+013 
27300 1.86141E+013 
27350 1.8506E+013 
27400 1.83985E+013 
27450 1.82916E+013 
27500 1.81852E+013 
27550 1.80794E+013 
27600 1.79742E+013 
27650 1.78695E+013 
27700 1.77654E+013 
27750 1.76618E+013 
27800 1.75588E+013 
27850 1.74564E+013 
27900 1.73545E+013 
27950 1.72532E+013 
28000 1.71524E+013 
28050 1.70521E+013 
28100 1.69524E+013 
28150 1.68532E+013 
28200 1.67546E+013 
28250 1.66565E+013 
28300 1.65589E+013 
28350 1.64618E+013 
28400 1.63653E+013 
28450 1.62693E+013 
28500 1.61738E+013 
28550 1.60789E+013 
28600 1.59844E+013 
28650 1.58905E+013 
28700 1.57971E+013 
28750 1.57042E+013 
28800 1.56118E+013 
28850 1.55199E+013 
28900 1.54285E+013 
28950 1.53376E+013 
29000 1.52472E+013 
29050 1.51573E+013 
29100 1.50679E+013 
29150 1.4979E+013 
29200 1.48906E+013 
29250 1.48026E+013 
29300 1.47152E+013 
29350 1.46282E+013 
29400 1.45417E+013 
29450 1.44557E+013 
29500 1.43701E+013 
29550 1.4285E+013 
29600 1.42004E+013 
29650 1.41163E+013 
29700 1.40326E+013 
29750 1.39494E+013 
29800 1.38667E+013 
29850 1.37844E+013 
29900 1.37025E+013 
29950 1.36212E+013 
30000 1.35402E+013 
30050 1.34597E+013 
30100 1.33797E+013 
30150 1.33001E+013 
30200 1.3221E+013 
30250 1.31423E+013 
30300 1.3064E+013 
30350 1.29862E+013 
30400 1.29088E+013 
30450 1.28318E+013 
30500 1.27553E+013 
30550 1.26792E+013 
30600 1.26035E+013 
30650 1.25283E+013 
30700 1.24534E+013 
30750 1.2379E+013 
30800 1.2305E+013 
30850 1.22315E+013 
30900 1.21583E+013 
30950 1.20855E+013 
31000 1.20132E+013 
31050 1.19412E+013 
31100 1.18697E+013 
31150 1.17986E+013 
31200 1.17279E+013 
31250 1.16575E+013 
31300 1.15876E+013 
31350 1.15181E+013 
31400 1.14489E+013 
31450 1.13802E+013 
31500 1.13118E+013 
31550 1.12438E+013 
31600 1.11762E+013 
31650 1.1109E+013 
31700 1.10422E+013 
31750 1.09758E+013 
31800 1.09097E+013 
31850 1.0844E+013 
31900 1.07787E+013 
31950 1.07137E+013 
32000 1.06491E+013 
32050 1.05849E+013 
32100 1.05211E+013 
32150 1.04576E+013 
32200 1.03945E+013 
32250 1.03317E+013 
32300 1.02693E+013 
32350 1.02073E+013 
32400 1.01456E+013 
32450 1.00842E+013 
32500 1.00233E+013 
32550 9.96262E+012 
32600 9.90233E+012 
32650 9.84239E+012 
32700 9.78279E+012 
32750 9.72353E+012 
32800 9.66461E+012 
32850 9.60604E+012 
32900 9.54779E+012 
32950 9.48989E+012 
33000 9.43231E+012 
33050 9.37507E+012 
33100 9.31816E+012 
33150 9.26157E+012 
33200 9.20531E+012 
33250 9.14938E+012 
33300 9.09377E+012 
33350 9.03848E+012 
33400 8.98351E+012 
33450 8.92886E+012 
33500 8.87452E+012 
33550 8.8205E+012 
33600 8.76679E+012 
33650 8.71339E+012 
33700 8.6603E+012 
33750 8.60752E+012 
33800 8.55504E+012 
33850 8.50287E+012 
33900 8.45101E+012 
33950 8.39944E+012 
34000 8.34817E+012 
34050 8.29721E+012 
34100 8.24653E+012 
34150 8.19616E+012 
34200 8.14607E+012 
34250 8.09628E+012 
34300 8.04678E+012 
34350 7.99757E+012 
34400 7.94864E+012 
34450 7.9E+012 
34500 7.85165E+012 
34550 7.80357E+012 
34600 7.75578E+012 
34650 7.70827E+012 
34700 7.66103E+012 
34750 7.61407E+012 
34800 7.56739E+012 
34850 7.52098E+012 
34900 7.47484E+012 
34950 7.42897E+012 
35000 7.38337E+012 
35050 7.33804E+012 
35100 7.29297E+012 
35150 7.24817E+012 
35200 7.20363E+012 
35250 7.15936E+012 
35300 7.11534E+012 
35350 7.07159E+012 
35400 7.02809E+012 
35450 6.98484E+012 
35500 6.94186E+012 
35550 6.89912E+012 
35600 6.85664E+012 
35650 6.8144E+012 
35700 6.77242E+012 
35750 6.73069E+012 
35800 6.6892E+012 
35850 6.64795E+012 
35900 6.60695E+012 
35950 6.56619E+012 
36000 6.52568E+012 
36050 6.4854E+012 
36100 6.44536E+012 
36150 6.40556E+012 
36200 6.366E+012 
36250 6.32666E+012 
36300 6.28757E+012 
36350 6.2487E+012 
36400 6.21006E+012 
36450 6.17166E+012 
36500 6.13348E+012 
36550 6.09553E+012 
36600 6.0578E+012 
36650 6.0203E+012 
36700 5.98302E+012 
36750 5.94597E+012 
36800 5.90913E+012 
36850 5.87251E+012 
36900 5.83611E+012 
36950 5.79993E+012 
37000 5.76397E+012 
37050 5.72821E+012 
37100 5.69268E+012 
37150 5.65735E+012 
37200 5.62223E+012 
37250 5.58733E+012 
37300 5.55263E+012 
37350 5.51814E+012 
37400 5.48386E+012 
37450 5.44978E+012 
37500 5.41591E+012 
37550 5.38223E+012 
37600 5.34876E+012 
37650 5.31549E+012 
37700 5.28242E+012 
37750 5.24955E+012 
37800 5.21688E+012 
37850 5.1844E+012 
37900 5.15211E+012 
37950 5.12002E+012 
38000 5.08812E+012 
38050 5.05642E+012 
38100 5.0249E+012 
38150 4.99358E+012 
38200 4.96244E+012 
38250 4.93149E+012 
38300 4.90072E+012 
38350 4.87014E+012 
38400 4.83975E+012 
38450 4.80954E+012 
38500 4.77951E+012 
38550 4.74966E+012 
38600 4.71999E+012 
38650 4.6905E+012 
38700 4.66119E+012 
38750 4.63205E+012 
38800 4.60309E+012 
38850 4.5743E+012 
38900 4.54569E+012 
38950 4.51726E+012 
39000 4.48899E+012 
39050 4.4609E+012 
39100 4.43297E+012 
39150 4.40521E+012 
39200 4.37763E+012 
39250 4.3502E+012 
39300 4.32295E+012 
39350 4.29586E+012 
39400 4.26893E+012 
39450 4.24217E+012 
39500 4.21557E+012 
39550 4.18913E+012 
39600 4.16285E+012 
39650 4.13673E+012 
39700 4.11077E+012 
39750 4.08497E+012 
39800 4.05933E+012 
39850 4.03383E+012 
39900 4.0085E+012 
39950 3.98332E+012 
40000 3.95829E+012 
40050 3.93341E+012 
40100 3.90869E+012 
40150 3.88412E+012 
40200 3.85969E+012 
40250 3.83542E+012 
40300 3.81129E+012 
40350 3.78731E+012 
40400 3.76348E+012 
40450 3.73979E+012 
40500 3.71624E+012 
40550 3.69284E+012 
40600 3.66959E+012 
40650 3.64647E+012 
40700 3.62349E+012 
40750 3.60066E+012 
40800 3.57797E+012 
40850 3.55541E+012 
40900 3.53299E+012 
40950 3.51071E+012 
41000 3.48857E+012 
41050 3.46656E+012 
41100 3.44468E+012 
41150 3.42294E+012 
41200 3.40134E+012 
41250 3.37986E+012 
41300 3.35852E+012 
41350 3.33731E+012 
41400 3.31622E+012 
41450 3.29527E+012 
41500 3.27445E+012 
41550 3.25375E+012 
41600 3.23318E+012 
41650 3.21274E+012 
41700 3.19242E+012 
41750 3.17223E+012 
41800 3.15216E+012 
41850 3.13221E+012 
41900 3.11239E+012 
41950 3.09269E+012 
42000 3.07311E+012 
42050 3.05365E+012 
42100 3.03431E+012 
42150 3.01509E+012 
42200 2.99599E+012 
42250 2.97701E+012 
42300 2.95814E+012 
42350 2.93939E+012 
42400 2.92075E+012 
42450 2.90223E+012 
42500 2.88382E+012 
42550 2.86553E+012 
42600 2.84735E+012 
42650 2.82929E+012 
42700 2.81133E+012 
42750 2.79348E+012 
42800 2.77575E+012 
42850 2.75812E+012 
42900 2.74061E+012 
42950 2.7232E+012 
43000 2.7059E+012 
43050 2.68871E+012 
43100 2.67162E+012 
43150 2.65464E+012 
43200 2.63776E+012 
43250 2.62099E+012 
43300 2.60432E+012 
43350 2.58776E+012 
43400 2.57129E+012 
43450 2.55493E+012 
43500 2.53868E+012 
43550 2.52252E+012 
43600 2.50646E+012 
43650 2.4905E+012 
43700 2.47464E+012 
43750 2.45888E+012 
43800 2.44322E+012 
43850 2.42766E+012 
43900 2.41219E+012 
43950 2.39681E+012 
44000 2.38154E+012 
44050 2.36635E+012 
44100 2.35127E+012 
44150 2.33627E+012 
44200 2.32137E+012 
44250 2.30656E+012 
44300 2.29185E+012 
44350 2.27722E+012 
44400 2.26269E+012 
44450 2.24825E+012 
44500 2.23389E+012 
44550 2.21963E+012 
44600 2.20545E+012 
44650 2.19137E+012 
44700 2.17737E+012 
44750 2.16346E+012 
44800 2.14964E+012 
44850 2.1359E+012 
44900 2.12224E+012 
44950 2.10868E+012 
45000 2.09519E+012 
45050 2.0818E+012 
45100 2.06848E+012 
45150 2.05525E+012 
45200 2.0421E+012 
45250 2.02903E+012 
45300 2.01605E+012 
45350 2.00314E+012 
45400 1.99032E+012 
45450 1.97758E+012 
45500 1.96491E+012 
45550 1.95233E+012 
45600 1.93982E+012 
45650 1.9274E+012 
45700 1.91505E+012 
45750 1.90278E+012 
45800 1.89058E+012 
45850 1.87846E+012 
45900 1.86642E+012 
45950 1.85445E+012 
46000 1.84256E+012 
46050 1.83074E+012 
46100 1.819E+012 
46150 1.80733E+012 
46200 1.79573E+012 
46250 1.78421E+012 
46300 1.77275E+012 
46350 1.76138E+012 
46400 1.75007E+012 
46450 1.73883E+012 
46500 1.72766E+012 
46550 1.71657E+012 
46600 1.70554E+012 
46650 1.69458E+012 
46700 1.68369E+012 
46750 1.67287E+012 
46800 1.66212E+012 
46850 1.65144E+012 
46900 1.64082E+012 
46950 1.63027E+012 
47000 1.61978E+012 
47050 1.60937E+012 
47100 1.59901E+012 
47150 1.58873E+012 
47200 1.5785E+012 
47250 1.56834E+012 
47300 1.55825E+012 
47350 1.54822E+012 
47400 1.53825E+012 
47450 1.52835E+012 
47500 1.51851E+012 
47550 1.50872E+012 
47600 1.49901E+012 
47650 1.48935E+012 
47700 1.47975E+012 
47750 1.47022E+012 
