#F U:\Beamline I20\I20-2_EDE\Wigglers\xop\83mm-small-wiggler\EDE wiggler\1p3T-300mA-0p12x0p8mrad.dat
#C I20EDE 1.3T 300mA 0.12x0.8mrad
#S 1 File written by xplot on Tue Dec 07 18:00:35 2010
#N 2
#L    Energy [eV]  Flux [ph/s/0.1%bw]
50 5.22061E+012 
100 8.28186E+012 
150 1.08393E+013 
200 1.31104E+013 
250 1.51853E+013 
300 1.71125E+013 
350 1.89219E+013 
400 2.06337E+013 
450 2.22622E+013 
500 2.3818E+013 
550 2.53095E+013 
600 2.67432E+013 
650 2.81244E+013 
700 2.94575E+013 
750 3.07461E+013 
800 3.19935E+013 
850 3.32024E+013 
900 3.4375E+013 
950 3.55135E+013 
1000 3.66196E+013 
1050 3.76951E+013 
1100 3.87413E+013 
1150 3.97595E+013 
1200 4.07511E+013 
1250 4.1717E+013 
1300 4.26582E+013 
1350 4.35757E+013 
1400 4.44704E+013 
1450 4.5343E+013 
1500 4.61941E+013 
1550 4.70247E+013 
1600 4.78351E+013 
1650 4.86262E+013 
1700 4.93983E+013 
1750 5.01521E+013 
1800 5.0888E+013 
1850 5.16066E+013 
1900 5.23083E+013 
1950 5.29934E+013 
2000 5.36624E+013 
2050 5.43158E+013 
2100 5.49538E+013 
2150 5.55768E+013 
2200 5.61852E+013 
2250 5.67792E+013 
2300 5.73593E+013 
2350 5.79256E+013 
2400 5.84786E+013 
2450 5.90183E+013 
2500 5.95453E+013 
2550 6.00596E+013 
2600 6.05616E+013 
2650 6.10514E+013 
2700 6.15293E+013 
2750 6.19957E+013 
2800 6.24505E+013 
2850 6.28942E+013 
2900 6.33268E+013 
2950 6.37486E+013 
3000 6.41598E+013 
3050 6.45606E+013 
3100 6.49511E+013 
3150 6.53316E+013 
3200 6.57022E+013 
3250 6.60631E+013 
3300 6.64144E+013 
3350 6.67563E+013 
3400 6.70891E+013 
3450 6.74127E+013 
3500 6.77275E+013 
3550 6.80334E+013 
3600 6.83308E+013 
3650 6.86197E+013 
3700 6.89002E+013 
3750 6.91725E+013 
3800 6.94368E+013 
3850 6.96931E+013 
3900 6.99416E+013 
3950 7.01824E+013 
4000 7.04157E+013 
4050 7.06415E+013 
4100 7.086E+013 
4150 7.10712E+013 
4200 7.12754E+013 
4250 7.14726E+013 
4300 7.16629E+013 
4350 7.18465E+013 
4400 7.20233E+013 
4450 7.21937E+013 
4500 7.23575E+013 
4550 7.25151E+013 
4600 7.26663E+013 
4650 7.28114E+013 
4700 7.29504E+013 
4750 7.30835E+013 
4800 7.32107E+013 
4850 7.33321E+013 
4900 7.34477E+013 
4950 7.35578E+013 
5000 7.36624E+013 
5050 7.37615E+013 
5100 7.38552E+013 
5150 7.39437E+013 
5200 7.40269E+013 
5250 7.41051E+013 
5300 7.41782E+013 
5350 7.42464E+013 
5400 7.43097E+013 
5450 7.43681E+013 
5500 7.44219E+013 
5550 7.44709E+013 
5600 7.45154E+013 
5650 7.45553E+013 
5700 7.45908E+013 
5750 7.4622E+013 
5800 7.46488E+013 
5850 7.46713E+013 
5900 7.46897E+013 
5950 7.47039E+013 
6000 7.47141E+013 
6050 7.47203E+013 
6100 7.47226E+013 
6150 7.4721E+013 
6200 7.47156E+013 
6250 7.47065E+013 
6300 7.46936E+013 
6350 7.46772E+013 
6400 7.46571E+013 
6450 7.46335E+013 
6500 7.46065E+013 
6550 7.45761E+013 
6600 7.45423E+013 
6650 7.45051E+013 
6700 7.44648E+013 
6750 7.44212E+013 
6800 7.43745E+013 
6850 7.43248E+013 
6900 7.42719E+013 
6950 7.42161E+013 
7000 7.41573E+013 
7050 7.40956E+013 
7100 7.40311E+013 
7150 7.39637E+013 
7200 7.38936E+013 
7250 7.38208E+013 
7300 7.37453E+013 
7350 7.36672E+013 
7400 7.35864E+013 
7450 7.35032E+013 
7500 7.34174E+013 
7550 7.33292E+013 
7600 7.32386E+013 
7650 7.31456E+013 
7700 7.30503E+013 
7750 7.29527E+013 
7800 7.28528E+013 
7850 7.27507E+013 
7900 7.26464E+013 
7950 7.254E+013 
8000 7.24315E+013 
8050 7.23209E+013 
8100 7.22083E+013 
8150 7.20937E+013 
8200 7.19772E+013 
8250 7.18587E+013 
8300 7.17383E+013 
8350 7.16161E+013 
8400 7.1492E+013 
8450 7.13662E+013 
8500 7.12386E+013 
8550 7.11093E+013 
8600 7.09783E+013 
8650 7.08456E+013 
8700 7.07113E+013 
8750 7.05754E+013 
8800 7.0438E+013 
8850 7.0299E+013 
8900 7.01585E+013 
8950 7.00165E+013 
9000 6.9873E+013 
9050 6.97282E+013 
9100 6.95819E+013 
9150 6.94343E+013 
9200 6.92854E+013 
9250 6.91351E+013 
9300 6.89836E+013 
9350 6.88308E+013 
9400 6.86768E+013 
9450 6.85215E+013 
9500 6.83651E+013 
9550 6.82075E+013 
9600 6.80488E+013 
9650 6.7889E+013 
9700 6.77281E+013 
9750 6.75662E+013 
9800 6.74032E+013 
9850 6.72392E+013 
9900 6.70742E+013 
9950 6.69083E+013 
10000 6.67414E+013 
10050 6.65736E+013 
10100 6.64049E+013 
10150 6.62353E+013 
10200 6.60649E+013 
10250 6.58936E+013 
10300 6.57215E+013 
10350 6.55486E+013 
10400 6.53749E+013 
10450 6.52005E+013 
10500 6.50253E+013 
10550 6.48495E+013 
10600 6.46729E+013 
10650 6.44956E+013 
10700 6.43177E+013 
10750 6.41392E+013 
10800 6.396E+013 
10850 6.37802E+013 
10900 6.35999E+013 
10950 6.34189E+013 
11000 6.32374E+013 
11050 6.30554E+013 
11100 6.28729E+013 
11150 6.26898E+013 
11200 6.25063E+013 
11250 6.23223E+013 
11300 6.21378E+013 
11350 6.19529E+013 
11400 6.17676E+013 
11450 6.15818E+013 
11500 6.13957E+013 
11550 6.12092E+013 
11600 6.10224E+013 
11650 6.08352E+013 
11700 6.06476E+013 
11750 6.04597E+013 
11800 6.02716E+013 
11850 6.00831E+013 
11900 5.98944E+013 
11950 5.97053E+013 
12000 5.95161E+013 
12050 5.93266E+013 
12100 5.91368E+013 
12150 5.89469E+013 
12200 5.87567E+013 
12250 5.85664E+013 
12300 5.83759E+013 
12350 5.81852E+013 
12400 5.79943E+013 
12450 5.78034E+013 
12500 5.76123E+013 
12550 5.7421E+013 
12600 5.72297E+013 
12650 5.70382E+013 
12700 5.68467E+013 
12750 5.66551E+013 
12800 5.64634E+013 
12850 5.62717E+013 
12900 5.60799E+013 
12950 5.58881E+013 
13000 5.56963E+013 
13050 5.55045E+013 
13100 5.53126E+013 
13150 5.51208E+013 
13200 5.49289E+013 
13250 5.47371E+013 
13300 5.45454E+013 
13350 5.43536E+013 
13400 5.41619E+013 
13450 5.39703E+013 
13500 5.37787E+013 
13550 5.35872E+013 
13600 5.33958E+013 
13650 5.32045E+013 
13700 5.30133E+013 
13750 5.28222E+013 
13800 5.26312E+013 
13850 5.24403E+013 
13900 5.22496E+013 
13950 5.2059E+013 
14000 5.18685E+013 
14050 5.16782E+013 
14100 5.14881E+013 
14150 5.12981E+013 
14200 5.11083E+013 
14250 5.09187E+013 
14300 5.07293E+013 
14350 5.054E+013 
14400 5.0351E+013 
14450 5.01622E+013 
14500 4.99736E+013 
14550 4.97852E+013 
14600 4.9597E+013 
14650 4.94091E+013 
14700 4.92214E+013 
14750 4.90339E+013 
14800 4.88467E+013 
14850 4.86597E+013 
14900 4.84731E+013 
14950 4.82866E+013 
15000 4.81005E+013 
15050 4.79146E+013 
15100 4.7729E+013 
15150 4.75437E+013 
15200 4.73586E+013 
15250 4.71739E+013 
15300 4.69895E+013 
15350 4.68054E+013 
15400 4.66216E+013 
15450 4.64381E+013 
15500 4.62549E+013 
15550 4.60721E+013 
15600 4.58896E+013 
15650 4.57074E+013 
15700 4.55255E+013 
15750 4.5344E+013 
15800 4.51629E+013 
15850 4.4982E+013 
15900 4.48016E+013 
15950 4.46215E+013 
16000 4.44418E+013 
16050 4.42624E+013 
16100 4.40834E+013 
16150 4.39047E+013 
16200 4.37265E+013 
16250 4.35486E+013 
16300 4.33711E+013 
16350 4.3194E+013 
16400 4.30172E+013 
16450 4.28409E+013 
16500 4.26649E+013 
16550 4.24894E+013 
16600 4.23142E+013 
16650 4.21395E+013 
16700 4.19652E+013 
16750 4.17912E+013 
16800 4.16177E+013 
16850 4.14446E+013 
16900 4.12719E+013 
16950 4.10996E+013 
17000 4.09278E+013 
17050 4.07564E+013 
17100 4.05854E+013 
17150 4.04148E+013 
17200 4.02447E+013 
17250 4.0075E+013 
17300 3.99057E+013 
17350 3.97369E+013 
17400 3.95685E+013 
17450 3.94005E+013 
17500 3.9233E+013 
17550 3.90659E+013 
17600 3.88993E+013 
17650 3.87332E+013 
17700 3.85675E+013 
17750 3.84022E+013 
17800 3.82374E+013 
17850 3.8073E+013 
17900 3.79091E+013 
17950 3.77457E+013 
18000 3.75827E+013 
18050 3.74202E+013 
18100 3.72581E+013 
18150 3.70966E+013 
18200 3.69354E+013 
18250 3.67748E+013 
18300 3.66146E+013 
18350 3.64549E+013 
18400 3.62956E+013 
18450 3.61369E+013 
18500 3.59786E+013 
18550 3.58207E+013 
18600 3.56634E+013 
18650 3.55065E+013 
18700 3.53501E+013 
18750 3.51942E+013 
18800 3.50387E+013 
18850 3.48838E+013 
18900 3.47293E+013 
18950 3.45753E+013 
19000 3.44218E+013 
19050 3.42687E+013 
19100 3.41162E+013 
19150 3.39641E+013 
19200 3.38125E+013 
19250 3.36614E+013 
19300 3.35108E+013 
19350 3.33606E+013 
19400 3.3211E+013 
19450 3.30618E+013 
19500 3.29132E+013 
19550 3.2765E+013 
19600 3.26173E+013 
19650 3.247E+013 
19700 3.23233E+013 
19750 3.21771E+013 
19800 3.20314E+013 
19850 3.18861E+013 
19900 3.17413E+013 
19950 3.1597E+013 
20000 3.14533E+013 
20050 3.131E+013 
20100 3.11671E+013 
20150 3.10248E+013 
20200 3.0883E+013 
20250 3.07416E+013 
20300 3.06008E+013 
20350 3.04604E+013 
20400 3.03206E+013 
20450 3.01812E+013 
20500 3.00423E+013 
20550 2.99039E+013 
20600 2.9766E+013 
20650 2.96285E+013 
20700 2.94916E+013 
20750 2.93551E+013 
20800 2.92192E+013 
20850 2.90837E+013 
20900 2.89487E+013 
20950 2.88142E+013 
21000 2.86802E+013 
21050 2.85467E+013 
21100 2.84137E+013 
21150 2.82811E+013 
21200 2.8149E+013 
21250 2.80175E+013 
21300 2.78864E+013 
21350 2.77558E+013 
21400 2.76256E+013 
21450 2.7496E+013 
21500 2.73668E+013 
21550 2.72381E+013 
21600 2.71099E+013 
21650 2.69822E+013 
21700 2.6855E+013 
21750 2.67282E+013 
21800 2.66019E+013 
21850 2.64761E+013 
21900 2.63508E+013 
21950 2.6226E+013 
22000 2.61016E+013 
22050 2.59777E+013 
22100 2.58543E+013 
22150 2.57314E+013 
22200 2.56089E+013 
22250 2.54869E+013 
22300 2.53654E+013 
22350 2.52443E+013 
22400 2.51238E+013 
22450 2.50037E+013 
22500 2.4884E+013 
22550 2.47649E+013 
22600 2.46462E+013 
22650 2.4528E+013 
22700 2.44102E+013 
22750 2.42929E+013 
22800 2.41761E+013 
22850 2.40597E+013 
22900 2.39438E+013 
22950 2.38283E+013 
23000 2.37133E+013 
23050 2.35988E+013 
23100 2.34848E+013 
23150 2.33712E+013 
23200 2.3258E+013 
23250 2.31453E+013 
23300 2.30331E+013 
23350 2.29213E+013 
23400 2.281E+013 
23450 2.26991E+013 
23500 2.25887E+013 
23550 2.24787E+013 
23600 2.23692E+013 
23650 2.22601E+013 
23700 2.21515E+013 
23750 2.20433E+013 
23800 2.19356E+013 
23850 2.18283E+013 
23900 2.17215E+013 
23950 2.16151E+013 
24000 2.15091E+013 
24050 2.14036E+013 
24100 2.12985E+013 
24150 2.11939E+013 
24200 2.10897E+013 
24250 2.09859E+013 
24300 2.08826E+013 
24350 2.07797E+013 
24400 2.06772E+013 
24450 2.05752E+013 
24500 2.04736E+013 
24550 2.03725E+013 
24600 2.02717E+013 
24650 2.01714E+013 
24700 2.00715E+013 
24750 1.99721E+013 
24800 1.9873E+013 
24850 1.97744E+013 
24900 1.96762E+013 
24950 1.95784E+013 
25000 1.94811E+013 
25050 1.93842E+013 
25100 1.92876E+013 
25150 1.91915E+013 
25200 1.90959E+013 
25250 1.90006E+013 
25300 1.89057E+013 
25350 1.88113E+013 
25400 1.87172E+013 
25450 1.86236E+013 
25500 1.85304E+013 
25550 1.84376E+013 
25600 1.83452E+013 
25650 1.82531E+013 
25700 1.81616E+013 
25750 1.80703E+013 
25800 1.79796E+013 
25850 1.78891E+013 
25900 1.77991E+013 
25950 1.77095E+013 
26000 1.76203E+013 
26050 1.75315E+013 
26100 1.74431E+013 
26150 1.73551E+013 
26200 1.72674E+013 
26250 1.71802E+013 
26300 1.70933E+013 
26350 1.70068E+013 
26400 1.69207E+013 
26450 1.6835E+013 
26500 1.67497E+013 
26550 1.66648E+013 
26600 1.65802E+013 
26650 1.6496E+013 
26700 1.64122E+013 
26750 1.63288E+013 
26800 1.62458E+013 
26850 1.61631E+013 
26900 1.60808E+013 
26950 1.59988E+013 
27000 1.59173E+013 
27050 1.58361E+013 
27100 1.57553E+013 
27150 1.56748E+013 
27200 1.55947E+013 
27250 1.5515E+013 
27300 1.54357E+013 
27350 1.53567E+013 
27400 1.5278E+013 
27450 1.51998E+013 
27500 1.51218E+013 
27550 1.50443E+013 
27600 1.49671E+013 
27650 1.48902E+013 
27700 1.48137E+013 
27750 1.47376E+013 
27800 1.46618E+013 
27850 1.45864E+013 
27900 1.45113E+013 
27950 1.44365E+013 
28000 1.43621E+013 
28050 1.42881E+013 
28100 1.42143E+013 
28150 1.4141E+013 
28200 1.4068E+013 
28250 1.39953E+013 
28300 1.39229E+013 
28350 1.38509E+013 
28400 1.37792E+013 
28450 1.37079E+013 
28500 1.36369E+013 
28550 1.35662E+013 
28600 1.34958E+013 
28650 1.34258E+013 
28700 1.33561E+013 
28750 1.32868E+013 
28800 1.32178E+013 
28850 1.3149E+013 
28900 1.30807E+013 
28950 1.30126E+013 
29000 1.29449E+013 
29050 1.28774E+013 
29100 1.28103E+013 
29150 1.27435E+013 
29200 1.26771E+013 
29250 1.26109E+013 
29300 1.25451E+013 
29350 1.24796E+013 
29400 1.24144E+013 
29450 1.23494E+013 
29500 1.22849E+013 
29550 1.22206E+013 
29600 1.21566E+013 
29650 1.20929E+013 
29700 1.20296E+013 
29750 1.19665E+013 
29800 1.19037E+013 
29850 1.18413E+013 
29900 1.17791E+013 
29950 1.17172E+013 
30000 1.16557E+013 
30050 1.15944E+013 
30100 1.15334E+013 
30150 1.14727E+013 
30200 1.14124E+013 
30250 1.13523E+013 
30300 1.12925E+013 
30350 1.12329E+013 
30400 1.11737E+013 
30450 1.11148E+013 
30500 1.10561E+013 
30550 1.09977E+013 
30600 1.09396E+013 
30650 1.08818E+013 
30700 1.08243E+013 
30750 1.07671E+013 
30800 1.07101E+013 
30850 1.06534E+013 
30900 1.0597E+013 
30950 1.05409E+013 
31000 1.0485E+013 
31050 1.04294E+013 
31100 1.03741E+013 
31150 1.0319E+013 
31200 1.02643E+013 
31250 1.02097E+013 
31300 1.01555E+013 
31350 1.01015E+013 
31400 1.00478E+013 
31450 9.99436E+012 
31500 9.94118E+012 
31550 9.88826E+012 
31600 9.8356E+012 
31650 9.7832E+012 
31700 9.73105E+012 
31750 9.67917E+012 
31800 9.62754E+012 
31850 9.57616E+012 
31900 9.52504E+012 
31950 9.47418E+012 
32000 9.42356E+012 
32050 9.3732E+012 
32100 9.32309E+012 
32150 9.27322E+012 
32200 9.22361E+012 
32250 9.17424E+012 
32300 9.12511E+012 
32350 9.07623E+012 
32400 9.0276E+012 
32450 8.9792E+012 
32500 8.93105E+012 
32550 8.88314E+012 
32600 8.83547E+012 
32650 8.78803E+012 
32700 8.74084E+012 
32750 8.69388E+012 
32800 8.64715E+012 
32850 8.60066E+012 
32900 8.5544E+012 
32950 8.50838E+012 
33000 8.46258E+012 
33050 8.41702E+012 
33100 8.37168E+012 
33150 8.32657E+012 
33200 8.2817E+012 
33250 8.23704E+012 
33300 8.19261E+012 
33350 8.14841E+012 
33400 8.10443E+012 
33450 8.06067E+012 
33500 8.01713E+012 
33550 7.97381E+012 
33600 7.93071E+012 
33650 7.88783E+012 
33700 7.84517E+012 
33750 7.80272E+012 
33800 7.76049E+012 
33850 7.71847E+012 
33900 7.67666E+012 
33950 7.63507E+012 
34000 7.59369E+012 
34050 7.55252E+012 
34100 7.51156E+012 
34150 7.47081E+012 
34200 7.43026E+012 
34250 7.38992E+012 
34300 7.34979E+012 
34350 7.30986E+012 
34400 7.27014E+012 
34450 7.23062E+012 
34500 7.1913E+012 
34550 7.15218E+012 
34600 7.11327E+012 
34650 7.07455E+012 
34700 7.03603E+012 
34750 6.99771E+012 
34800 6.95958E+012 
34850 6.92165E+012 
34900 6.88392E+012 
34950 6.84638E+012 
35000 6.80903E+012 
35050 6.77187E+012 
35100 6.73491E+012 
35150 6.69813E+012 
35200 6.66155E+012 
35250 6.62515E+012 
35300 6.58894E+012 
35350 6.55292E+012 
35400 6.51708E+012 
35450 6.48143E+012 
35500 6.44596E+012 
35550 6.41068E+012 
35600 6.37558E+012 
35650 6.34066E+012 
35700 6.30592E+012 
35750 6.27136E+012 
35800 6.23698E+012 
35850 6.20278E+012 
35900 6.16875E+012 
35950 6.13491E+012 
36000 6.10123E+012 
36050 6.06774E+012 
36100 6.03441E+012 
36150 6.00126E+012 
36200 5.96829E+012 
36250 5.93548E+012 
36300 5.90285E+012 
36350 5.87038E+012 
36400 5.83809E+012 
36450 5.80596E+012 
36500 5.774E+012 
36550 5.74221E+012 
36600 5.71058E+012 
36650 5.67912E+012 
36700 5.64783E+012 
36750 5.61669E+012 
36800 5.58572E+012 
36850 5.55492E+012 
36900 5.52427E+012 
36950 5.49378E+012 
37000 5.46346E+012 
37050 5.43329E+012 
37100 5.40328E+012 
37150 5.37343E+012 
37200 5.34374E+012 
37250 5.3142E+012 
37300 5.28481E+012 
37350 5.25559E+012 
37400 5.22651E+012 
37450 5.19759E+012 
37500 5.16882E+012 
37550 5.1402E+012 
37600 5.11173E+012 
37650 5.08342E+012 
37700 5.05525E+012 
37750 5.02723E+012 
37800 4.99936E+012 
37850 4.97163E+012 
37900 4.94406E+012 
37950 4.91663E+012 
38000 4.88934E+012 
38050 4.8622E+012 
38100 4.8352E+012 
38150 4.80834E+012 
38200 4.78163E+012 
38250 4.75506E+012 
38300 4.72863E+012 
38350 4.70233E+012 
38400 4.67618E+012 
38450 4.65017E+012 
38500 4.6243E+012 
38550 4.59856E+012 
38600 4.57296E+012 
38650 4.5475E+012 
38700 4.52217E+012 
38750 4.49697E+012 
38800 4.47191E+012 
38850 4.44699E+012 
38900 4.42219E+012 
38950 4.39753E+012 
39000 4.373E+012 
39050 4.3486E+012 
39100 4.32434E+012 
39150 4.3002E+012 
39200 4.27618E+012 
39250 4.2523E+012 
39300 4.22855E+012 
39350 4.20492E+012 
39400 4.18142E+012 
39450 4.15805E+012 
39500 4.13479E+012 
39550 4.11167E+012 
39600 4.08867E+012 
39650 4.06579E+012 
39700 4.04303E+012 
39750 4.0204E+012 
39800 3.99789E+012 
39850 3.97549E+012 
39900 3.95322E+012 
39950 3.93107E+012 
40000 3.90904E+012 
40050 3.88712E+012 
40100 3.86533E+012 
40150 3.84364E+012 
40200 3.82208E+012 
40250 3.80064E+012 
40300 3.7793E+012 
40350 3.75809E+012 
40400 3.73698E+012 
40450 3.716E+012 
40500 3.69512E+012 
40550 3.67436E+012 
40600 3.65371E+012 
40650 3.63317E+012 
40700 3.61274E+012 
40750 3.59242E+012 
40800 3.57221E+012 
40850 3.55211E+012 
40900 3.53212E+012 
40950 3.51224E+012 
41000 3.49247E+012 
41050 3.4728E+012 
41100 3.45324E+012 
41150 3.43378E+012 
41200 3.41443E+012 
41250 3.39519E+012 
41300 3.37605E+012 
41350 3.35701E+012 
41400 3.33808E+012 
41450 3.31924E+012 
41500 3.30052E+012 
41550 3.28189E+012 
41600 3.26336E+012 
41650 3.24494E+012 
41700 3.22661E+012 
41750 3.20839E+012 
41800 3.19026E+012 
41850 3.17223E+012 
41900 3.1543E+012 
41950 3.13647E+012 
42000 3.11874E+012 
42050 3.1011E+012 
42100 3.08356E+012 
42150 3.06611E+012 
42200 3.04876E+012 
42250 3.0315E+012 
42300 3.01434E+012 
42350 2.99727E+012 
42400 2.98029E+012 
42450 2.96341E+012 
42500 2.94662E+012 
42550 2.92992E+012 
42600 2.91331E+012 
42650 2.8968E+012 
42700 2.88037E+012 
42750 2.86403E+012 
42800 2.84779E+012 
42850 2.83163E+012 
42900 2.81556E+012 
42950 2.79958E+012 
43000 2.78368E+012 
43050 2.76787E+012 
43100 2.75215E+012 
43150 2.73652E+012 
43200 2.72097E+012 
43250 2.70551E+012 
43300 2.69013E+012 
43350 2.67484E+012 
43400 2.65963E+012 
43450 2.6445E+012 
43500 2.62946E+012 
43550 2.6145E+012 
43600 2.59962E+012 
43650 2.58482E+012 
43700 2.57011E+012 
43750 2.55547E+012 
43800 2.54092E+012 
43850 2.52645E+012 
43900 2.51205E+012 
43950 2.49774E+012 
44000 2.48351E+012 
44050 2.46935E+012 
44100 2.45527E+012 
44150 2.44127E+012 
44200 2.42735E+012 
44250 2.4135E+012 
44300 2.39973E+012 
44350 2.38603E+012 
44400 2.37241E+012 
44450 2.35887E+012 
44500 2.3454E+012 
44550 2.33201E+012 
44600 2.31869E+012 
44650 2.30544E+012 
44700 2.29227E+012 
44750 2.27917E+012 
44800 2.26614E+012 
44850 2.25319E+012 
44900 2.2403E+012 
44950 2.22749E+012 
45000 2.21475E+012 
45050 2.20208E+012 
45100 2.18948E+012 
45150 2.17695E+012 
45200 2.16448E+012 
45250 2.15209E+012 
45300 2.13977E+012 
45350 2.12751E+012 
45400 2.11533E+012 
45450 2.10321E+012 
45500 2.09116E+012 
45550 2.07917E+012 
45600 2.06726E+012 
45650 2.0554E+012 
45700 2.04362E+012 
45750 2.0319E+012 
45800 2.02024E+012 
45850 2.00865E+012 
45900 1.99713E+012 
45950 1.98567E+012 
46000 1.97427E+012 
46050 1.96293E+012 
46100 1.95166E+012 
46150 1.94045E+012 
46200 1.92931E+012 
46250 1.91822E+012 
46300 1.9072E+012 
46350 1.89624E+012 
46400 1.88534E+012 
46450 1.87451E+012 
46500 1.86373E+012 
46550 1.85301E+012 
46600 1.84235E+012 
46650 1.83176E+012 
46700 1.82122E+012 
46750 1.81074E+012 
46800 1.80031E+012 
46850 1.78995E+012 
46900 1.77965E+012 
46950 1.7694E+012 
47000 1.75921E+012 
47050 1.74908E+012 
47100 1.739E+012 
47150 1.72898E+012 
47200 1.71902E+012 
47250 1.70911E+012 
47300 1.69926E+012 
47350 1.68946E+012 
47400 1.67972E+012 
47450 1.67003E+012 
47500 1.6604E+012 
47550 1.65082E+012 
47600 1.64129E+012 
47650 1.63182E+012 
47700 1.62241E+012 
47750 1.61304E+012 
47800 1.60373E+012 
