#F U:\Beamline I20\I20-2_EDE\Wigglers\xop\83mm-small-wiggler\EDE wiggler\1p3T-300mA-0p12x1p0mrad.dat
#C I20EDE 1.3T 300mA 0.12x1.0mrad
#S 1 File written by xplot on Tue Dec 07 17:59:38 2010
#N 2
#L    Energy [eV]  Flux [ph/s/0.1%bw]
50 6.5491E+012 
100 1.03893E+013 
150 1.35973E+013 
200 1.6446E+013 
250 1.90484E+013 
300 2.14656E+013 
350 2.37349E+013 
400 2.58816E+013 
450 2.79236E+013 
500 2.98745E+013 
550 3.17446E+013 
600 3.3542E+013 
650 3.52735E+013 
700 3.69446E+013 
750 3.85599E+013 
800 4.01234E+013 
850 4.16384E+013 
900 4.31079E+013 
950 4.45345E+013 
1000 4.59204E+013 
1050 4.72678E+013 
1100 4.85784E+013 
1150 4.98539E+013 
1200 5.10958E+013 
1250 5.23055E+013 
1300 5.34842E+013 
1350 5.4633E+013 
1400 5.57532E+013 
1450 5.68455E+013 
1500 5.7911E+013 
1550 5.89505E+013 
1600 5.99648E+013 
1650 6.09547E+013 
1700 6.19208E+013 
1750 6.28639E+013 
1800 6.37845E+013 
1850 6.46833E+013 
1900 6.55608E+013 
1950 6.64175E+013 
2000 6.7254E+013 
2050 6.80708E+013 
2100 6.88683E+013 
2150 6.9647E+013 
2200 7.04073E+013 
2250 7.11496E+013 
2300 7.18742E+013 
2350 7.25817E+013 
2400 7.32723E+013 
2450 7.39464E+013 
2500 7.46043E+013 
2550 7.52463E+013 
2600 7.58729E+013 
2650 7.64842E+013 
2700 7.70805E+013 
2750 7.76623E+013 
2800 7.82296E+013 
2850 7.87829E+013 
2900 7.93223E+013 
2950 7.98482E+013 
3000 8.03607E+013 
3050 8.08601E+013 
3100 8.13466E+013 
3150 8.18205E+013 
3200 8.2282E+013 
3250 8.27313E+013 
3300 8.31686E+013 
3350 8.35942E+013 
3400 8.40081E+013 
3450 8.44107E+013 
3500 8.4802E+013 
3550 8.51824E+013 
3600 8.55519E+013 
3650 8.59108E+013 
3700 8.62592E+013 
3750 8.65974E+013 
3800 8.69253E+013 
3850 8.72434E+013 
3900 8.75516E+013 
3950 8.78502E+013 
4000 8.81392E+013 
4050 8.8419E+013 
4100 8.86895E+013 
4150 8.8951E+013 
4200 8.92037E+013 
4250 8.94475E+013 
4300 8.96827E+013 
4350 8.99094E+013 
4400 9.01278E+013 
4450 9.0338E+013 
4500 9.054E+013 
4550 9.07341E+013 
4600 9.09203E+013 
4650 9.10988E+013 
4700 9.12697E+013 
4750 9.14332E+013 
4800 9.15892E+013 
4850 9.1738E+013 
4900 9.18797E+013 
4950 9.20143E+013 
5000 9.2142E+013 
5050 9.22628E+013 
5100 9.2377E+013 
5150 9.24845E+013 
5200 9.25856E+013 
5250 9.26802E+013 
5300 9.27685E+013 
5350 9.28506E+013 
5400 9.29266E+013 
5450 9.29966E+013 
5500 9.30607E+013 
5550 9.31189E+013 
5600 9.31713E+013 
5650 9.32181E+013 
5700 9.32594E+013 
5750 9.32951E+013 
5800 9.33254E+013 
5850 9.33505E+013 
5900 9.33703E+013 
5950 9.33849E+013 
6000 9.33945E+013 
6050 9.3399E+013 
6100 9.33987E+013 
6150 9.33936E+013 
6200 9.33836E+013 
6250 9.3369E+013 
6300 9.33498E+013 
6350 9.3326E+013 
6400 9.32977E+013 
6450 9.32651E+013 
6500 9.32281E+013 
6550 9.31869E+013 
6600 9.31415E+013 
6650 9.30919E+013 
6700 9.30383E+013 
6750 9.29807E+013 
6800 9.29192E+013 
6850 9.28538E+013 
6900 9.27846E+013 
6950 9.27117E+013 
7000 9.26351E+013 
7050 9.25548E+013 
7100 9.2471E+013 
7150 9.23837E+013 
7200 9.2293E+013 
7250 9.21989E+013 
7300 9.21014E+013 
7350 9.20006E+013 
7400 9.18967E+013 
7450 9.17896E+013 
7500 9.16793E+013 
7550 9.1566E+013 
7600 9.14497E+013 
7650 9.13304E+013 
7700 9.12083E+013 
7750 9.10832E+013 
7800 9.09554E+013 
7850 9.08248E+013 
7900 9.06915E+013 
7950 9.05555E+013 
8000 9.04169E+013 
8050 9.02758E+013 
8100 9.01321E+013 
8150 8.99859E+013 
8200 8.98373E+013 
8250 8.96863E+013 
8300 8.9533E+013 
8350 8.93773E+013 
8400 8.92194E+013 
8450 8.90593E+013 
8500 8.8897E+013 
8550 8.87326E+013 
8600 8.8566E+013 
8650 8.83974E+013 
8700 8.82268E+013 
8750 8.80542E+013 
8800 8.78796E+013 
8850 8.77032E+013 
8900 8.75248E+013 
8950 8.73447E+013 
9000 8.71627E+013 
9050 8.6979E+013 
9100 8.67936E+013 
9150 8.66064E+013 
9200 8.64177E+013 
9250 8.62273E+013 
9300 8.60353E+013 
9350 8.58417E+013 
9400 8.56466E+013 
9450 8.54501E+013 
9500 8.5252E+013 
9550 8.50526E+013 
9600 8.48518E+013 
9650 8.46495E+013 
9700 8.4446E+013 
9750 8.42411E+013 
9800 8.4035E+013 
9850 8.38276E+013 
9900 8.3619E+013 
9950 8.34093E+013 
10000 8.31983E+013 
10050 8.29862E+013 
10100 8.2773E+013 
10150 8.25588E+013 
10200 8.23434E+013 
10250 8.21271E+013 
10300 8.19097E+013 
10350 8.16914E+013 
10400 8.14721E+013 
10450 8.12519E+013 
10500 8.10308E+013 
10550 8.08089E+013 
10600 8.0586E+013 
10650 8.03623E+013 
10700 8.01379E+013 
10750 7.99126E+013 
10800 7.96866E+013 
10850 7.94598E+013 
10900 7.92324E+013 
10950 7.90042E+013 
11000 7.87754E+013 
11050 7.85459E+013 
11100 7.83157E+013 
11150 7.8085E+013 
11200 7.78537E+013 
11250 7.76218E+013 
11300 7.73893E+013 
11350 7.71564E+013 
11400 7.69229E+013 
11450 7.66889E+013 
11500 7.64545E+013 
11550 7.62195E+013 
11600 7.59842E+013 
11650 7.57484E+013 
11700 7.55123E+013 
11750 7.52757E+013 
11800 7.50388E+013 
11850 7.48016E+013 
11900 7.4564E+013 
11950 7.43261E+013 
12000 7.40879E+013 
12050 7.38494E+013 
12100 7.36106E+013 
12150 7.33716E+013 
12200 7.31324E+013 
12250 7.28929E+013 
12300 7.26533E+013 
12350 7.24134E+013 
12400 7.21734E+013 
12450 7.19332E+013 
12500 7.16929E+013 
12550 7.14524E+013 
12600 7.12118E+013 
12650 7.09711E+013 
12700 7.07303E+013 
12750 7.04895E+013 
12800 7.02486E+013 
12850 7.00076E+013 
12900 6.97666E+013 
12950 6.95255E+013 
13000 6.92845E+013 
13050 6.90434E+013 
13100 6.88024E+013 
13150 6.85613E+013 
13200 6.83203E+013 
13250 6.80794E+013 
13300 6.78385E+013 
13350 6.75976E+013 
13400 6.73569E+013 
13450 6.71162E+013 
13500 6.68757E+013 
13550 6.66352E+013 
13600 6.63949E+013 
13650 6.61547E+013 
13700 6.59146E+013 
13750 6.56747E+013 
13800 6.5435E+013 
13850 6.51954E+013 
13900 6.4956E+013 
13950 6.47168E+013 
14000 6.44778E+013 
14050 6.42389E+013 
14100 6.40004E+013 
14150 6.3762E+013 
14200 6.35239E+013 
14250 6.3286E+013 
14300 6.30483E+013 
14350 6.28109E+013 
14400 6.25738E+013 
14450 6.2337E+013 
14500 6.21004E+013 
14550 6.18641E+013 
14600 6.16282E+013 
14650 6.13925E+013 
14700 6.11571E+013 
14750 6.09221E+013 
14800 6.06874E+013 
14850 6.0453E+013 
14900 6.02189E+013 
14950 5.99852E+013 
15000 5.97519E+013 
15050 5.95189E+013 
15100 5.92863E+013 
15150 5.90541E+013 
15200 5.88222E+013 
15250 5.85907E+013 
15300 5.83596E+013 
15350 5.81289E+013 
15400 5.78986E+013 
15450 5.76687E+013 
15500 5.74393E+013 
15550 5.72102E+013 
15600 5.69816E+013 
15650 5.67534E+013 
15700 5.65256E+013 
15750 5.62983E+013 
15800 5.60714E+013 
15850 5.5845E+013 
15900 5.5619E+013 
15950 5.53935E+013 
16000 5.51684E+013 
16050 5.49438E+013 
16100 5.47197E+013 
16150 5.44961E+013 
16200 5.42729E+013 
16250 5.40502E+013 
16300 5.3828E+013 
16350 5.36064E+013 
16400 5.33852E+013 
16450 5.31645E+013 
16500 5.29443E+013 
16550 5.27246E+013 
16600 5.25054E+013 
16650 5.22868E+013 
16700 5.20686E+013 
16750 5.1851E+013 
16800 5.16339E+013 
16850 5.14174E+013 
16900 5.12014E+013 
16950 5.09859E+013 
17000 5.07709E+013 
17050 5.05565E+013 
17100 5.03426E+013 
17150 5.01293E+013 
17200 4.99165E+013 
17250 4.97043E+013 
17300 4.94926E+013 
17350 4.92815E+013 
17400 4.9071E+013 
17450 4.8861E+013 
17500 4.86516E+013 
17550 4.84427E+013 
17600 4.82344E+013 
17650 4.80267E+013 
17700 4.78196E+013 
17750 4.7613E+013 
17800 4.7407E+013 
17850 4.72016E+013 
17900 4.69968E+013 
17950 4.67926E+013 
18000 4.65889E+013 
18050 4.63858E+013 
18100 4.61833E+013 
18150 4.59814E+013 
18200 4.57801E+013 
18250 4.55794E+013 
18300 4.53793E+013 
18350 4.51798E+013 
18400 4.49809E+013 
18450 4.47825E+013 
18500 4.45848E+013 
18550 4.43877E+013 
18600 4.41912E+013 
18650 4.39953E+013 
18700 4.37999E+013 
18750 4.36052E+013 
18800 4.34111E+013 
18850 4.32176E+013 
18900 4.30248E+013 
18950 4.28325E+013 
19000 4.26408E+013 
19050 4.24497E+013 
19100 4.22593E+013 
19150 4.20695E+013 
19200 4.18803E+013 
19250 4.16917E+013 
19300 4.15037E+013 
19350 4.13163E+013 
19400 4.11295E+013 
19450 4.09434E+013 
19500 4.07578E+013 
19550 4.05729E+013 
19600 4.03886E+013 
19650 4.02049E+013 
19700 4.00219E+013 
19750 3.98394E+013 
19800 3.96576E+013 
19850 3.94764E+013 
19900 3.92958E+013 
19950 3.91158E+013 
20000 3.89365E+013 
20050 3.87577E+013 
20100 3.85796E+013 
20150 3.84021E+013 
20200 3.82253E+013 
20250 3.8049E+013 
20300 3.78733E+013 
20350 3.76983E+013 
20400 3.75239E+013 
20450 3.73501E+013 
20500 3.71769E+013 
20550 3.70044E+013 
20600 3.68324E+013 
20650 3.66611E+013 
20700 3.64904E+013 
20750 3.63203E+013 
20800 3.61509E+013 
20850 3.5982E+013 
20900 3.58138E+013 
20950 3.56461E+013 
21000 3.54791E+013 
21050 3.53127E+013 
21100 3.51469E+013 
21150 3.49818E+013 
21200 3.48172E+013 
21250 3.46533E+013 
21300 3.44899E+013 
21350 3.43272E+013 
21400 3.41651E+013 
21450 3.40036E+013 
21500 3.38427E+013 
21550 3.36824E+013 
21600 3.35227E+013 
21650 3.33636E+013 
21700 3.32051E+013 
21750 3.30473E+013 
21800 3.289E+013 
21850 3.27333E+013 
21900 3.25773E+013 
21950 3.24218E+013 
22000 3.22669E+013 
22050 3.21127E+013 
22100 3.1959E+013 
22150 3.1806E+013 
22200 3.16535E+013 
22250 3.15016E+013 
22300 3.13503E+013 
22350 3.11997E+013 
22400 3.10496E+013 
22450 3.09001E+013 
22500 3.07512E+013 
22550 3.06028E+013 
22600 3.04551E+013 
22650 3.0308E+013 
22700 3.01614E+013 
22750 3.00155E+013 
22800 2.98701E+013 
22850 2.97253E+013 
22900 2.95811E+013 
22950 2.94374E+013 
23000 2.92944E+013 
23050 2.91519E+013 
23100 2.901E+013 
23150 2.88686E+013 
23200 2.87279E+013 
23250 2.85877E+013 
23300 2.84481E+013 
23350 2.83091E+013 
23400 2.81706E+013 
23450 2.80327E+013 
23500 2.78954E+013 
23550 2.77587E+013 
23600 2.76225E+013 
23650 2.74868E+013 
23700 2.73518E+013 
23750 2.72173E+013 
23800 2.70833E+013 
23850 2.69499E+013 
23900 2.68171E+013 
23950 2.66848E+013 
24000 2.65531E+013 
24050 2.64219E+013 
24100 2.62913E+013 
24150 2.61613E+013 
24200 2.60317E+013 
24250 2.59028E+013 
24300 2.57744E+013 
24350 2.56465E+013 
24400 2.55191E+013 
24450 2.53923E+013 
24500 2.52661E+013 
24550 2.51404E+013 
24600 2.50152E+013 
24650 2.48906E+013 
24700 2.47665E+013 
24750 2.46429E+013 
24800 2.45199E+013 
24850 2.43973E+013 
24900 2.42754E+013 
24950 2.41539E+013 
25000 2.4033E+013 
25050 2.39126E+013 
25100 2.37927E+013 
25150 2.36734E+013 
25200 2.35545E+013 
25250 2.34362E+013 
25300 2.33184E+013 
25350 2.32011E+013 
25400 2.30843E+013 
25450 2.29681E+013 
25500 2.28523E+013 
25550 2.27371E+013 
25600 2.26223E+013 
25650 2.25081E+013 
25700 2.23944E+013 
25750 2.22812E+013 
25800 2.21685E+013 
25850 2.20563E+013 
25900 2.19445E+013 
25950 2.18333E+013 
26000 2.17226E+013 
26050 2.16124E+013 
26100 2.15026E+013 
26150 2.13934E+013 
26200 2.12846E+013 
26250 2.11763E+013 
26300 2.10685E+013 
26350 2.09612E+013 
26400 2.08544E+013 
26450 2.07481E+013 
26500 2.06422E+013 
26550 2.05368E+013 
26600 2.04319E+013 
26650 2.03275E+013 
26700 2.02235E+013 
26750 2.01201E+013 
26800 2.0017E+013 
26850 1.99145E+013 
26900 1.98124E+013 
26950 1.97108E+013 
27000 1.96097E+013 
27050 1.9509E+013 
27100 1.94088E+013 
27150 1.9309E+013 
27200 1.92097E+013 
27250 1.91108E+013 
27300 1.90124E+013 
27350 1.89145E+013 
27400 1.8817E+013 
27450 1.872E+013 
27500 1.86234E+013 
27550 1.85272E+013 
27600 1.84315E+013 
27650 1.83362E+013 
27700 1.82414E+013 
27750 1.8147E+013 
27800 1.80531E+013 
27850 1.79596E+013 
27900 1.78665E+013 
27950 1.77739E+013 
28000 1.76817E+013 
28050 1.75899E+013 
28100 1.74986E+013 
28150 1.74077E+013 
28200 1.73172E+013 
28250 1.72271E+013 
28300 1.71375E+013 
28350 1.70483E+013 
28400 1.69595E+013 
28450 1.68711E+013 
28500 1.67831E+013 
28550 1.66956E+013 
28600 1.66084E+013 
28650 1.65217E+013 
28700 1.64354E+013 
28750 1.63495E+013 
28800 1.6264E+013 
28850 1.61789E+013 
28900 1.60942E+013 
28950 1.60099E+013 
29000 1.59261E+013 
29050 1.58426E+013 
29100 1.57595E+013 
29150 1.56768E+013 
29200 1.55945E+013 
29250 1.55126E+013 
29300 1.54311E+013 
29350 1.535E+013 
29400 1.52692E+013 
29450 1.51889E+013 
29500 1.51089E+013 
29550 1.50294E+013 
29600 1.49502E+013 
29650 1.48714E+013 
29700 1.47929E+013 
29750 1.47149E+013 
29800 1.46372E+013 
29850 1.45599E+013 
29900 1.4483E+013 
29950 1.44064E+013 
30000 1.43303E+013 
30050 1.42545E+013 
30100 1.4179E+013 
30150 1.41039E+013 
30200 1.40292E+013 
30250 1.39549E+013 
30300 1.38809E+013 
30350 1.38073E+013 
30400 1.3734E+013 
30450 1.36611E+013 
30500 1.35885E+013 
30550 1.35163E+013 
30600 1.34445E+013 
30650 1.3373E+013 
30700 1.33018E+013 
30750 1.32311E+013 
30800 1.31606E+013 
30850 1.30905E+013 
30900 1.30207E+013 
30950 1.29513E+013 
31000 1.28823E+013 
31050 1.28135E+013 
31100 1.27451E+013 
31150 1.26771E+013 
31200 1.26093E+013 
31250 1.2542E+013 
31300 1.24749E+013 
31350 1.24082E+013 
31400 1.23418E+013 
31450 1.22757E+013 
31500 1.221E+013 
31550 1.21446E+013 
31600 1.20795E+013 
31650 1.20147E+013 
31700 1.19503E+013 
31750 1.18862E+013 
31800 1.18224E+013 
31850 1.17589E+013 
31900 1.16957E+013 
31950 1.16329E+013 
32000 1.15704E+013 
32050 1.15081E+013 
32100 1.14462E+013 
32150 1.13846E+013 
32200 1.13233E+013 
32250 1.12623E+013 
32300 1.12017E+013 
32350 1.11413E+013 
32400 1.10812E+013 
32450 1.10214E+013 
32500 1.0962E+013 
32550 1.09028E+013 
32600 1.08439E+013 
32650 1.07853E+013 
32700 1.07271E+013 
32750 1.06691E+013 
32800 1.06114E+013 
32850 1.0554E+013 
32900 1.04968E+013 
32950 1.044E+013 
33000 1.03835E+013 
33050 1.03272E+013 
33100 1.02713E+013 
33150 1.02156E+013 
33200 1.01602E+013 
33250 1.01051E+013 
33300 1.00502E+013 
33350 9.99565E+012 
33400 9.94137E+012 
33450 9.88736E+012 
33500 9.83363E+012 
33550 9.78016E+012 
33600 9.72698E+012 
33650 9.67406E+012 
33700 9.62141E+012 
33750 9.56904E+012 
33800 9.51693E+012 
33850 9.46508E+012 
33900 9.4135E+012 
33950 9.36219E+012 
34000 9.31113E+012 
34050 9.26034E+012 
34100 9.20981E+012 
34150 9.15954E+012 
34200 9.10953E+012 
34250 9.05977E+012 
34300 9.01027E+012 
34350 8.96102E+012 
34400 8.91203E+012 
34450 8.86329E+012 
34500 8.8148E+012 
34550 8.76656E+012 
34600 8.71856E+012 
34650 8.67082E+012 
34700 8.62332E+012 
34750 8.57607E+012 
34800 8.52906E+012 
34850 8.48229E+012 
34900 8.43577E+012 
34950 8.38948E+012 
35000 8.34344E+012 
35050 8.29763E+012 
35100 8.25206E+012 
35150 8.20673E+012 
35200 8.16163E+012 
35250 8.11677E+012 
35300 8.07214E+012 
35350 8.02774E+012 
35400 7.98358E+012 
35450 7.93964E+012 
35500 7.89593E+012 
35550 7.85245E+012 
35600 7.80919E+012 
35650 7.76616E+012 
35700 7.72336E+012 
35750 7.68077E+012 
35800 7.63841E+012 
35850 7.59627E+012 
35900 7.55436E+012 
35950 7.51265E+012 
36000 7.47117E+012 
36050 7.42991E+012 
36100 7.38886E+012 
36150 7.34803E+012 
36200 7.30741E+012 
36250 7.267E+012 
36300 7.2268E+012 
36350 7.18682E+012 
36400 7.14705E+012 
36450 7.10748E+012 
36500 7.06812E+012 
36550 7.02897E+012 
36600 6.99003E+012 
36650 6.95129E+012 
36700 6.91275E+012 
36750 6.87442E+012 
36800 6.83629E+012 
36850 6.79835E+012 
36900 6.76062E+012 
36950 6.72309E+012 
37000 6.68576E+012 
37050 6.64862E+012 
37100 6.61168E+012 
37150 6.57494E+012 
37200 6.53839E+012 
37250 6.50203E+012 
37300 6.46587E+012 
37350 6.42989E+012 
37400 6.39411E+012 
37450 6.35852E+012 
37500 6.32311E+012 
37550 6.2879E+012 
37600 6.25287E+012 
37650 6.21802E+012 
37700 6.18336E+012 
37750 6.14889E+012 
37800 6.1146E+012 
37850 6.08049E+012 
37900 6.04656E+012 
37950 6.01281E+012 
38000 5.97924E+012 
38050 5.94585E+012 
38100 5.91264E+012 
38150 5.87961E+012 
38200 5.84675E+012 
38250 5.81407E+012 
38300 5.78156E+012 
38350 5.74923E+012 
38400 5.71706E+012 
38450 5.68507E+012 
38500 5.65326E+012 
38550 5.62161E+012 
38600 5.59013E+012 
38650 5.55882E+012 
38700 5.52767E+012 
38750 5.4967E+012 
38800 5.46588E+012 
38850 5.43524E+012 
38900 5.40476E+012 
38950 5.37444E+012 
39000 5.34429E+012 
39050 5.31429E+012 
39100 5.28446E+012 
39150 5.25479E+012 
39200 5.22528E+012 
39250 5.19592E+012 
39300 5.16673E+012 
39350 5.13769E+012 
39400 5.10881E+012 
39450 5.08008E+012 
39500 5.05151E+012 
39550 5.02309E+012 
39600 4.99483E+012 
39650 4.96671E+012 
39700 4.93875E+012 
39750 4.91094E+012 
39800 4.88328E+012 
39850 4.85577E+012 
39900 4.82841E+012 
39950 4.8012E+012 
40000 4.77413E+012 
40050 4.74721E+012 
40100 4.72044E+012 
40150 4.69381E+012 
40200 4.66732E+012 
40250 4.64098E+012 
40300 4.61478E+012 
40350 4.58872E+012 
40400 4.56281E+012 
40450 4.53703E+012 
40500 4.51139E+012 
40550 4.4859E+012 
40600 4.46054E+012 
40650 4.43532E+012 
40700 4.41024E+012 
40750 4.38529E+012 
40800 4.36048E+012 
40850 4.3358E+012 
40900 4.31126E+012 
40950 4.28685E+012 
41000 4.26258E+012 
41050 4.23843E+012 
41100 4.21442E+012 
41150 4.19054E+012 
41200 4.16679E+012 
41250 4.14317E+012 
41300 4.11968E+012 
41350 4.09631E+012 
41400 4.07308E+012 
41450 4.04997E+012 
41500 4.02698E+012 
41550 4.00413E+012 
41600 3.98139E+012 
41650 3.95878E+012 
41700 3.9363E+012 
41750 3.91394E+012 
41800 3.8917E+012 
41850 3.86958E+012 
41900 3.84759E+012 
41950 3.82571E+012 
42000 3.80395E+012 
42050 3.78232E+012 
42100 3.7608E+012 
42150 3.7394E+012 
42200 3.71811E+012 
42250 3.69695E+012 
42300 3.6759E+012 
42350 3.65497E+012 
42400 3.63415E+012 
42450 3.61344E+012 
42500 3.59285E+012 
42550 3.57237E+012 
42600 3.55201E+012 
42650 3.53176E+012 
42700 3.51161E+012 
42750 3.49158E+012 
42800 3.47166E+012 
42850 3.45185E+012 
42900 3.43215E+012 
42950 3.41256E+012 
43000 3.39308E+012 
43050 3.3737E+012 
43100 3.35443E+012 
43150 3.33526E+012 
43200 3.31621E+012 
43250 3.29725E+012 
43300 3.27841E+012 
43350 3.25966E+012 
43400 3.24102E+012 
43450 3.22248E+012 
43500 3.20405E+012 
43550 3.18571E+012 
43600 3.16748E+012 
43650 3.14935E+012 
43700 3.13132E+012 
43750 3.11339E+012 
43800 3.09556E+012 
43850 3.07783E+012 
43900 3.0602E+012 
43950 3.04266E+012 
44000 3.02522E+012 
44050 3.00788E+012 
44100 2.99063E+012 
44150 2.97348E+012 
44200 2.95643E+012 
44250 2.93947E+012 
44300 2.9226E+012 
44350 2.90583E+012 
44400 2.88915E+012 
44450 2.87256E+012 
44500 2.85607E+012 
44550 2.83967E+012 
44600 2.82336E+012 
44650 2.80714E+012 
44700 2.79101E+012 
44750 2.77497E+012 
44800 2.75902E+012 
44850 2.74315E+012 
44900 2.72738E+012 
44950 2.71169E+012 
45000 2.6961E+012 
45050 2.68058E+012 
45100 2.66516E+012 
45150 2.64982E+012 
45200 2.63457E+012 
45250 2.6194E+012 
45300 2.60432E+012 
45350 2.58932E+012 
45400 2.5744E+012 
45450 2.55957E+012 
45500 2.54482E+012 
45550 2.53016E+012 
45600 2.51557E+012 
45650 2.50107E+012 
45700 2.48665E+012 
45750 2.47231E+012 
45800 2.45805E+012 
45850 2.44387E+012 
45900 2.42977E+012 
45950 2.41574E+012 
46000 2.4018E+012 
46050 2.38793E+012 
46100 2.37415E+012 
46150 2.36044E+012 
46200 2.3468E+012 
46250 2.33324E+012 
46300 2.31976E+012 
46350 2.30636E+012 
46400 2.29303E+012 
46450 2.27977E+012 
46500 2.26659E+012 
46550 2.25349E+012 
46600 2.24045E+012 
46650 2.22749E+012 
46700 2.21461E+012 
46750 2.20179E+012 
46800 2.18905E+012 
46850 2.17638E+012 
46900 2.16378E+012 
46950 2.15125E+012 
47000 2.1388E+012 
47050 2.12641E+012 
47100 2.11409E+012 
47150 2.10184E+012 
47200 2.08966E+012 
47250 2.07755E+012 
47300 2.06551E+012 
47350 2.05354E+012 
47400 2.04163E+012 
47450 2.02979E+012 
47500 2.01802E+012 
47550 2.00631E+012 
47600 1.99467E+012 
47650 1.98309E+012 
47700 1.97159E+012 
47750 1.96014E+012 
47800 1.94876E+012 
