# angle	roll	pitch
Units	Deg	urad	urad
5.53	-380	191
5.974	-233	184
6.308	-175	186
7.1	-50	179
8.121	50	177
9.486	140	175
11.406	235	155
14.312	330	162
19.244	425	150
23.298	500	140
29.63	550	130
41.238	600	100
44.93	610	90
52.282	620	70
59.296	630	40
64.014	650	-15
70.339	610	-45
75	400	-115
